time (s),temp0,temp1,temp2,temp3,temp4,temp5,temp6
0.0,308.8943849243254,298.0272301789048,291.72867395512566,287.8937208341083,285.6250377167421,284.7619238638477,284.15
1.37,304.3029365767327,295.5850619648006,290.23785377138483,287.00921936518563,285.2997900410873,284.5196703469513,284.1650807714143
2.75,302.7950902188459,295.78138471349297,290.3544945818842,287.09488369839795,285.3588740193274,284.5417053918363,284.18870704479366
4.12,300.9126184667156,295.97188701451654,290.52267260514157,287.21422483366985,285.4318063068832,284.57481320192056,284.19097257864115
5.49,299.1058797186742,296.0164438677795,290.6951089456993,287.3363524122691,285.5057550945657,284.60881757162934,284.18115401416827
6.87,297.5090551827344,295.90905168593866,290.8606558522016,287.4597348014546,285.580864734281,284.64200035739555,284.16762219805946
8.24,296.1563913417659,295.6845115451973,291.0054464238365,287.58206769213876,285.6560052405684,284.6736208939475,284.15488418590155
9.620000000000001,294.9997666136669,295.3778719148345,291.1229956098133,287.7040371885791,285.73209840652027,284.7045158956701,284.144595169534
10.99,294.02144456718975,295.0250488074577,291.207363514438,287.82212934849633,285.80781813298967,284.7347666357974,284.1375125313686
12.36,293.1814474328338,294.64701147087095,291.2589481277669,287.93520027986597,285.88344427291304,284.76507796254145,284.1336108407875
13.74,292.44937474664397,294.2567453155766,291.2796525928546,288.04204262288295,285.959181642823,284.7960404385801,284.1327278324873
15.11,291.81540304976795,293.87042196049117,291.2723799165133,288.13948482278903,286.0335122612308,284.8274464773516,284.1346283931087
16.48,291.25778495156123,293.4918893075379,291.24110686226214,288.22716844079343,286.10651151398093,284.85964412596576,284.13903308222825
17.86,290.7603999390215,293.12258872959364,291.18914870417154,288.30491788123015,286.17819016421157,284.89290539265755,284.1457452571425
19.23,290.3202656125636,292.77020641990407,291.120803389377,288.37131544898136,286.2470148698082,284.92669572282034,284.15443018459393
20.6,289.9254318861762,292.43317956100947,291.0389247013113,288.4270078119026,286.31305916358076,284.9611382105736,284.16490929063133
21.98,289.56684420282147,292.10962514766607,290.9455602938507,288.4725842692577,286.37637483538225,284.99632827992804,284.17707054594376
23.35,289.24429038113465,291.80414718642305,290.8444364951274,288.50786156470394,286.43571805160366,285.0315629185863,284.1905417458617
24.73,288.94856272296335,291.51188833716145,290.73609955210355,288.53395497330007,286.4917013107045,285.0671437139968,284.20532999100453
26.1,288.68024681831884,291.2365039987977,290.6237935482588,288.55114874646216,286.54333514698834,285.10233776524325,284.22103985254074
27.47,288.43402081959545,290.9751406203875,290.5081347066271,288.5603540764851,286.59092968922334,285.1371893867311,284.237600185929
28.85,288.2056984186037,290.7253040726735,290.38939556620625,288.56225189787517,286.63473783183065,285.1717422517102,284.2549706762879
30.22,287.99637008395814,290.4898655509169,290.2702364791727,288.55749537985105,286.6741268013883,285.2053043164601,284.2727366528834
31.59,287.80242907788346,290.2662300975187,290.15056572101696,288.54677234450855,286.70947431865676,285.23795542741254,284.29086683390415
32.97,287.6209870992756,290.05217075902425,290.030131121753,288.53055940043254,286.7410754420286,285.2697682568623,284.3093485885916
34.34,287.45326489801016,289.8501021623304,289.91118057319255,288.5096665525044,286.7685807703696,285.3001473183648,284.3277749019958
35.71,287.2966828016434,289.6577858223732,289.7932405510789,288.4845240720284,286.7923626517518,285.3292135872871,284.3461501285399
37.09,287.14914369318063,289.4733069657838,289.6757838294697,288.45539455684104,286.8127001404628,285.3570692967648,284.36448714909113
38.46,287.0118485379965,289.29876419119717,289.56076464173725,288.4231473981088,286.82945441251513,285.3832343717342,284.38241067388606
39.84,286.8819596528925,289.13106714676917,289.44670123299875,288.3877227787158,286.84303421616625,285.40803104342194,284.4000823130975
41.21,286.7606298725244,288.9721457709554,289.33539550729563,288.3500031077089,286.85340868841786,285.4310565405439,284.4171573190555
42.58,286.6462451008464,288.8202933692998,289.2261239269889,288.3100733895914,286.8608535979397,285.4524672761857,284.43368736347287
43.96,286.53746588121777,288.67404307407674,289.1181905741244,288.2679209517523,286.8655576531293,285.4723852739063,284.44971824292844
45.33,286.4353535855664,288.5351122413009,289.01321252703696,288.2244274475707,286.8676150193164,285.4905167118105,284.4649588246452
46.7,286.33863857689414,288.4020460455697,288.9104311838729,288.1795357403199,286.8672268541678,285.50701659110365,284.47947820912736
48.08,286.24625621602297,288.27358797744483,288.80913463812686,288.13312247949796,286.86451764117413,285.5220008307009,284.4933330485266
49.45,286.1591714208935,288.1512772596756,288.710790893584,288.0860556205146,286.8596739553865,285.5352729171479,284.50628942887744
50.82,286.07636122250693,288.0338653841335,288.6146463375337,288.0381764637317,286.852824646795,285.54697407169584,284.5184250213573
52.2,285.9969597716008,287.92026829972565,288.52000233990935,287.9892837293167,286.8440334451333,285.55720487221834,284.52980034241057
53.57,285.9218398846566,287.8118729273012,288.42820231869433,287.940225162074,286.8335560050014,285.56585358282047,284.540237803443
54.95,285.8496495643946,287.70685296176583,288.3378716896546,287.89040975557054,286.82136227851595,285.5730869562236,284.5498825870437
56.32,285.7812044452028,287.6065053775996,288.2502809007639,287.84066977746505,286.80774426075936,285.5788431183917,284.55859283184344
57.69,285.7157597171274,287.50984581879663,288.16472575016405,287.7907429736774,286.79272767419377,285.5832246798476,284.5664439646661
59.07,285.65267626803944,287.4160119275307,288.0805589295075,287.74035051370896,286.77629116599616,285.5862957272038,284.57349028663043
60.44,285.59269135736685,287.3261806659587,287.9989535235425,287.69029985491204,286.75876990966776,285.58805978753816,284.57963953607674
61.81,285.535176187181,287.23948959053996,287.9192446981985,287.64029393814076,286.7401401546348,285.5885924100628,284.58495869331244
63.190000000000005,285.47958723523533,287.15517922238797,287.840822307353,287.5900289937076,286.7203402756191,285.5879335296286,284.5894930951393
64.56,285.42659208405524,287.0743216351121,287.7647737515882,287.5402866849279,286.69973798358177,285.5861419872328,284.5931947619565
65.94,285.3752883563875,286.9955946746181,287.6899391722736,287.4903881007676,286.67810912185683,285.58324121891735,284.5961375391904
67.31,285.32630168415517,286.92000765907034,287.6173542001638,287.4410974891324,286.6558383909831,285.57932196643253,284.5982999507746
68.68,285.27914441136454,286.8468576305938,287.54642207398,287.3920882123684,286.63283859394596,285.5744149140529,284.5997284366134
70.06,285.23339036859085,286.7755204679718,287.4765950462756,287.3430372526388,286.6089970522401,285.56852108105176,284.60044898012745
71.43,285.18960856637045,286.70692090970937,287.40883812350535,287.2946828071002,286.5847181626864,285.56177231951216,284.60047534615836
72.8,285.1473742913707,286.6404316360833,287.3425937353416,287.24669177177213,286.5598863940396,285.55417444433067,284.5998399359937
74.18,285.1063141651178,286.57549310531783,287.2773495745006,287.1987383829392,286.53436657855815,285.5457073249738,284.59855616776764
75.55,285.0669472807033,286.5129553596626,287.21400724418265,287.1515351052891,286.50857711913045,285.53653682853474,284.59666798854977
76.92,285.0289003551927,286.45225522234176,287.1520460844386,287.1047478230599,286.48238009796665,285.52664615916495,284.59419363752517
78.3,284.99184339872727,286.3928881524941,287.09098700916394,287.05805225113534,286.45562280611705,285.51599618030565,284.59113414143826
79.67,284.95625145969217,286.3356380062879,287.031674448098,287.0121356429873,286.42873303351786,285.5047806130562,284.5875590007139
81.05,284.9215463131682,286.27959599688796,286.9732028562593,286.9663364317118,286.40135608849744,285.49287415902637,284.58344115378577
82.42,284.8881764980663,286.2255059586267,286.91638156440536,286.92132539880475,286.373923879089,285.4804861167305,284.57886481347344
83.79,284.8558356888857,286.1728917171119,286.86074565065496,286.87677455608264,286.3462717607238,285.46756756618436,284.57382593974467
85.17,284.8242507860265,286.1213237425704,286.80586606144647,286.8323680714387,286.3182265694282,285.4540527451454,284.5683064781865
86.54,284.79383443201067,286.07149138895767,286.75250362115776,286.7887526440952,286.290223681292,285.4401703269198,284.56240952175347
87.91,284.764312038681,286.02296123955375,286.7002233207496,286.74560688323675,286.26208745955876,285.4258554778825,284.5561190429443
89.29,284.73543765819335,285.97534083078045,286.64862294282966,286.7026222266609,286.23363664212303,285.41102943980536,284.5494068981959
90.66,284.70759207823437,285.92927083614,286.59841917164715,286.66042205030305,286.20530734437267,285.39593609724346,284.5423916718995
92.03,284.68052766593553,285.8843549928141,286.5492044117726,286.61869285847195,286.1769159049289,285.3804970769228,284.5350465933296
93.41,284.65402164353435,285.8402331710371,286.5006010555091,286.57713430608567,286.1482754157341,285.3646226978613,284.52733458181285
94.78,284.62842645287964,285.79750241164305,286.453285500519,286.53634723037595,286.11982048432196,285.3485684804848,284.5193867491752
96.16,284.60333817804985,285.7554981960286,286.4065397390784,286.49573424033315,286.0911541634991,285.3321246248845,284.5111059252744
97.53,284.5790920634689,285.7147909276876,286.36101520151436,286.4558815697011,286.0627090045931,285.3155526857792,284.5026301275116
98.9,284.55547716224476,285.6750362479249,286.3163449182099,286.4164905104832,286.03429316546453,285.2987565032517,284.49391755442304
100.28,284.53230241632446,285.63591942197183,286.27218781466087,286.3772755357018,286.00571461210393,285.2816323245845,284.48491881323855
101.65,284.5098795859603,285.59797425053483,286.22916050517915,286.3388016572058,285.97740149782885,285.26444848984175,284.4757803485113
103.02,284.4880158326595,285.5608826081841,286.18691764378957,286.30077950068824,285.949159522314,285.24710071608786,284.46645302745367
104.4,284.4665358456332,285.5243528178767,286.1451376475782,286.2629326987063,285.9207955909525,285.2294789938149,284.45688155711497
105.77,284.4457303227532,285.48888560202596,286.1044051128222,286.2258058175691,285.8927321400626,285.2118561032752,284.4472187918227
107.14,284.42542221732134,285.4541860689577,286.06439449334334,286.18911891384937,285.8647738456698,285.1941212957023,284.43740944198845
108.52,284.4054500069848,285.4199830363988,286.0248020912336,286.1526047889423,285.83672772821996,285.1761597170785,284.4273933364337
109.89,284.3860854414992,285.38674724141043,285.98618297660187,286.11678832148937,285.8090094395163,285.1582465986757,284.41732800741767
111.27,284.3670288174339,285.3539694153752,285.947955131238,286.0811422053387,285.7812229575457,285.14013472911205,284.40707844440664
112.64,284.34854028113637,285.3221018154673,285.91065517002926,286.0461785888438,285.7537789181431,285.12210002333154,284.3968044639613
114.01,284.33046495732737,285.2908827720999,285.87398698371004,286.0116331268098,285.726482790989,285.10402410941424,284.3864428623109
115.39,284.31266078191845,285.2600705449712,285.8376735458052,285.97725366613884,285.69914382751574,285.08578673186787,284.3759273614981
116.76,284.29537190802404,285.23009175935834,285.80222552109217,285.94353388012,285.6721645554618,285.06766360630314,284.3654201115545
118.14,284.27833257766395,285.20048951156764,285.76711020940775,285.90997686771374,285.64515700332583,285.0494010545285,284.3547770902692
119.51,284.2617771076355,285.17167456254623,285.73282199556337,285.8770643580802,285.61851796059847,285.03127394756405,284.3441613654892
120.88,284.245568700637,285.14341289893025,285.69909036600257,285.8445471376912,285.5920560221278,285.01315953319306,284.33350434647514
122.26,284.22958125809856,285.1154874316242,285.66566158102916,285.8121875626931,285.56558455597354,284.9949348852681,284.32273580789257
123.63000000000001,284.21403548115285,285.08828682519857,285.63300705197594,285.7804500289961,285.53949136975143,284.97687270286616,284.31201936705
125.0,284.198803857551,285.06159148824764,285.60087003964156,285.7490940895818,285.5135877532397,284.9588488636099,284.3012842199293
126.38000000000001,284.1837685292193,285.03519724559203,285.5690093792244,285.71789048287826,285.4876901990124,284.9407398909842,284.2904586364619
127.75,284.1691377835064,285.0094724664972,285.5378750557799,285.68728692144566,285.46217717810066,284.9228153917871,284.2797059332789
129.13,284.15468874258084,284.9840278911613,285.50700107886456,285.65683211178026,285.43667910698196,284.9048204876315,284.26887527370656
130.5,284.14062200633055,284.9592192437052,285.47682391693536,285.62696297959474,285.41156807911966,284.88702229123055,284.2581293698038
131.87,284.1268234597996,284.934848027359,285.44710755077335,285.5974531150323,285.3866608693857,284.869296068175,284.24739512458353
133.25,284.11318719070556,284.9107290388903,285.4176297955219,285.56808665622617,285.36177995846145,284.8515188132236,284.2365994754252
134.62,284.0999030857154,284.887200275228,285.38880794387364,285.5392848721935,285.3372877332866,284.8339533653241,284.22590371437695
135.99,284.08686401702664,284.86407438593193,285.3604172192328,285.5108294090992,285.31300470227995,284.81647544346384,284.21523407196264
137.37,284.0739703317325,284.8411762366332,285.3322457703566,285.4825120871912,285.28875727811186,284.79896300147186,284.2045172743032
138.74,284.06140206998225,284.8188274166214,285.30469289471705,285.4547391014601,285.2648980272491,284.78167407202864,284.1939126719069
140.12,284.0489691411292,284.79669169162787,285.27734757931086,285.4271008110554,285.2410796139174,284.76436023679565,284.1832692813934
141.49,284.03684544696983,284.7750803636076,285.2505977129282,285.39999366192615,285.21764801901986,284.7472760787807,284.1727449139682
142.86,284.0249340832484,284.75382258738273,285.2242355707773,285.3732121259924,285.19443048272706,284.730299137438,284.16226561705673
144.24,284.0131445966745,284.73275820092664,285.1980650257507,285.34656024699854,285.1712603469258,284.7133098344737,284.15175854341504
145.61,284.00164227900416,284.7121839965927,285.1724577047506,285.32042031630556,285.14847372199483,284.6965572937839,284.1413788946577
146.98,283.99033563082736,284.6919379563922,285.1472152127882,285.29459413893704,285.1259020949223,284.67992065624185,284.13105306940184
148.36,283.97913908405746,284.6718679589376,285.1221500535232,285.2688927451793,285.10338310843866,284.66328223494503,284.12070885605743
149.73,283.9682099561369,284.6522572713278,285.0976185102102,285.2436847935403,285.08124303984545,284.6468854196176,284.1104985465647
151.1,283.9574616886345,284.6329520110921,285.07343092384116,285.21877916042814,285.0593177229897,284.63061125271014,284.100349170337
152.48,283.9468131937617,284.61380748952956,285.04940789776674,285.1939936125933,285.0374491628461,284.6143441775424,284.0901893796908
153.85,283.9364143832757,284.5950943347617,285.02589121158456,285.16968367640516,285.01595388136286,284.5983216463748,284.08016831923345
155.23,283.9261091571825,284.57653270505244,285.00253130016927,285.1454907888415,284.99451756356166,284.58231129931687,284.07014147122214
156.6,283.9160427712245,284.55838524248855,284.9796606950613,285.12176197957837,284.97345027989536,284.56654654297836,284.0602557740086
157.97,283.9061360203543,284.54051029645376,284.95710313155075,285.0983173544118,284.9525952346389,284.55091210766415,284.05043980718517
159.35,283.8963145120299,284.5227743957255,284.93469166684946,285.07498537723376,284.931801760123,284.53529639250456,284.0406240659636
160.72,283.8867169176569,284.50542883503147,284.9127455790087,285.0521007364038,284.9113703719934,284.51992665874104,284.03095205998756
162.09,283.8772679845387,284.4883386032621,284.89109600971847,285.0294899481873,284.8911487190893,284.50469008236286,284.0213535341512
163.47,283.86789693330223,284.47137634049426,284.8695829211048,285.00698758330765,284.8709905197999,284.48947761276065,284.0117602764246
164.84,283.8587362788834,284.4547826732242,284.84851300927824,284.98491643813173,284.8511868884554,284.4745103052994,284.00231225576425
166.22,283.8496490740766,284.4383102721162,284.8275736835531,284.9629509921367,284.8314476205551,284.4595701406584,283.9928723943282
167.59,283.84076394197837,284.4221929901967,284.8070635902043,284.9414063453677,284.8120576503111,284.44487401782317,283.9835782529095
168.96,283.8320115768018,284.40630589732234,284.78682530596654,284.9201191901037,284.79287200316315,284.43031345862823,283.9743618091309
170.34,283.82332665628667,284.39053094410394,284.76670947976976,284.89893379186157,284.7737516356406,284.4157838585137,283.96515723180073
171.71,283.81483227114194,284.37509231510717,284.74700318526646,284.87815406914467,284.75497237704667,284.40149589328615,283.95609842916656
173.08,283.80646234608764,284.3598706040266,284.72755536413746,284.85762252262936,284.736393626215,284.38734380109827,283.94711884839717
174.46,283.79815453415654,284.34475287975994,284.70822262736584,284.837188952116,284.7178806110515,284.3732257174752,283.9381541847419
175.83,283.79002672210487,284.32995418958905,284.6892810234855,284.81714649868775,284.69970025184637,284.35934612505764,283.92933466344965
177.21,283.7819577956877,284.31525452487733,284.67044995781606,284.7971995838438,284.68158571378495,284.34550220510533,283.9205317758766
178.58,283.7740623362181,284.3008631075335,284.6519984056617,284.7776343721812,284.6637980845764,284.3318943353027,283.9118732831717
179.95000000000002,283.7662791770613,284.28666899106537,284.63378519479215,284.7583025851794,284.6462039264898,284.3184213862752,283.90329523102224
181.33,283.75855050737505,284.2725671063369,284.61567621542235,284.7390628092684,284.62867543793465,284.3049861183669,283.8947359658538
182.70000000000002,283.75098618845993,284.2587583279842,284.597930248302,284.7201910712999,284.6114651447324,284.291782817746,283.8863195627037
184.07,283.7435277453422,284.2451363832511,284.58041165482445,284.7015443567014,284.59444381042937,284.2787131622463,283.87798368571595
185.45000000000002,283.73611986258607,284.2316005586074,284.56299152895525,284.682986268557,284.5774877089282,284.2656826920243,283.86966831068105
186.82,283.72886793883976,284.2183438055263,284.5459189115394,284.664783060216,284.5608410206272,284.2528796871117,283.8614938476627
188.19,283.7217160240021,284.20526425807094,284.529063428267,284.64679679090744,284.54437862936,284.24020863422527,283.85339960645837
189.57,283.7146111486662,284.19226531748757,284.5123011299168,284.6288958995533,284.5279807982033,284.22757784140794,283.84532720687054
190.94,283.70765448495945,284.1795324039062,284.4958717433478,284.6113372164997,284.51188358234964,284.21516968215377,283.83739342886196
192.32,283.7007427123848,284.16687671396267,284.47953225649366,284.5938618156508,284.49585036738296,284.2028022939473,283.82948220515124
193.69,283.6939743039605,284.1544788444489,284.4635164033963,284.5767204262518,284.4801119087669,284.19065416899116,283.8217079177956
195.06,283.687297190351,284.1422437457472,284.44770204057266,284.55978316450205,284.46454976462365,284.1786344460758,283.8140126492395
196.44,283.68066201799377,284.13008119868863,284.4319729808033,284.54292614920826,284.44905064582,284.1666559931022,283.8063407666978
197.81,283.67416338623894,284.1181648594565,284.41655429765757,284.52639124210975,284.43383755379205,284.15489158601605,283.7988031044275
