time (s),temp0,temp1,temp2,temp3,temp4,temp5,temp6
0.0,315.74457808915616,301.8139894324233,294.7143278153223,290.3865477642066,287.8552400438134,286.30757772404434,285.21
1.37,309.8556425439248,299.0799060157653,293.0314800337688,289.40467081657334,287.2549771268908,285.87304986215906,285.23703651701106
2.75,307.97533865858225,299.3691546201687,293.1645306485914,289.48766304446974,287.29677113616174,285.9119019434689,285.27919491980947
4.12,305.6342679319873,299.64449581259413,293.35887581437487,289.6039743943374,287.3585899588278,285.9672741149449,285.28269700962164
5.5,303.37360644724316,299.7306239905841,293.5627434744498,289.72485419653,287.4255632406565,286.01976503131783,285.26387189577207
6.87,301.406427388551,299.6216384541389,293.75737677443396,289.84708665415866,287.49557958834674,286.0655320798832,285.237931881494
8.24,299.728637230633,299.3615224852452,293.9292307509104,289.9712691444199,287.5682936794173,286.10539015860707,285.2121666409136
9.620000000000001,298.29549465013207,298.99547728075777,294.0680251817947,290.09700736357007,287.64344567735617,286.14099726599505,285.1895057773411
10.99,297.08448705143974,298.5688597224112,294.1660933697328,290.2201951108078,287.7192607769031,286.173349615911,285.1713085207845
12.36,296.0456338602811,298.1085384500853,294.22365301009853,290.3390246700068,287.7956860647049,286.20398791411355,285.15751417983716
13.74,295.14095158640873,297.6312025974949,294.24290445224386,290.4516357544951,287.8727013239004,286.2340918601436,285.1478184149583
15.11,294.3579908616753,297.15720878790455,294.2274910219256,290.5541604095265,287.9485799563197,286.263905339188,285.14198753663624
16.490000000000002,293.6649352696218,296.6883219925118,294.18185428905065,290.64642748431976,288.02377946380597,286.29430517435037,285.1395394543778
17.86,293.0558671364644,296.23662262774246,294.11134306596165,290.7260501917268,288.0965558114981,286.325091964515,285.140138155896
19.23,292.51282670743853,295.80170892697333,294.0201054012239,290.79323111727626,288.1668314484176,286.3565707113218,285.1434175217719
20.61,292.0223263659133,295.38217624309294,293.9112290160241,290.84825308671645,288.2345092337195,286.3889479965858,285.14912199228314
21.98,291.5832477219493,294.9847073625363,293.7897393022282,290.8905840262431,288.29810533375115,286.42163767652397,285.15688876514787
23.36,291.1824064812721,294.60347301772174,293.6568400665031,290.9213529902965,288.3581295532912,286.4549383951513,285.16656928562475
24.73,290.82009351221217,294.2435742864827,293.51694538279753,290.9407806091652,288.4133901817218,286.4881528341196,285.1777796666679
26.1,290.4887127608469,293.9015177674941,293.37119299818187,290.9498903949534,288.4641073897151,286.52128800219174,285.19035383990007
27.48,290.182329600357,293.57419270541806,293.220191676305,290.9494522939655,288.5104530596309,286.5543426885097,285.2041760271527
28.85,289.9021602180282,293.26546994019697,293.06755161484693,290.9402956317268,288.5516828283715,286.5866021687962,285.21883437913425
30.22,289.6431723949408,292.97202508884936,292.9133503999657,290.92325605868825,288.5881416403578,286.61808557676926,285.234224138206
31.6,289.4013572025527,292.69098647571775,292.75740356912104,290.89890842301395,288.62008926725366,286.64880717618064,285.25027170135576
32.97,289.17821473036804,292.4255606295772,292.602743568378,290.8683448102845,288.64715224696437,286.67813711132766,285.26656225768335
34.34,288.9702063035538,292.1728339386037,292.4488610097967,290.83210158787176,288.6697028138423,286.70614082120574,285.2830402116886
35.72,288.77446619570514,291.93030675482686,292.2951446330497,290.7904983378694,288.6880080428974,286.732868266998,285.29966725584165
37.09,288.5925203637374,291.7007505993779,292.14421974002306,290.7447288645277,288.70197309618504,286.7578159714985,285.31605516371917
38.47,288.420552906898,291.4801102544038,291.9941988982856,290.6946709726764,288.711987718529,286.7812529307046,285.33230719693694
39.84,288.26004544563983,291.27093171312356,291.8474991375982,290.6415425993359,288.7180995103349,286.8027656745246,285.3480658931007
41.21,288.10882486064645,291.0709747588246,291.7032097238429,290.5854387314945,288.72059157259565,286.82247566058453,285.3633415372808
42.59,287.96509152276064,290.8783112297286,291.56044248339,290.52632426827574,288.7196424482332,286.840468903734,285.37814286935486
43.96,287.830223575432,290.6952072435209,291.4213649807917,290.4654205002571,288.7154632395062,286.85646222073495,285.3921707372136
45.34,287.70161657339094,290.5184960667797,291.2840138233195,290.4021695739087,288.7081888677071,286.8706802736874,285.4055562310651
46.71,287.5805706165759,290.35028449598883,291.15041951214266,290.33778279117075,288.6981139583222,286.8829202925965,285.41804345250773
48.08,287.46562495888924,290.1888452304,291.01959501362495,290.2720708352806,288.6853787431185,286.89330580277806,285.42968100716854
49.46,287.3555478856673,290.03267913972473,290.8906166115605,290.2047777157818,288.67003880905247,286.90191515791065,285.4405024577844
50.83,287.2515224795829,289.88368485764533,290.7653401351263,290.1370901061716,288.65248562316964,286.9086539834502,285.4503182202102
52.2,287.1523599862754,289.740370834782,290.64279609125083,290.0687116391316,288.63277741098113,286.9136279645757,285.45918569128025
53.58,287.05704861899403,289.60143538399967,290.52208564802083,289.99930509401634,288.61090150680076,286.9168965848865,285.4671421422979
54.95,286.96666136661736,289.4685980973696,290.40491686729797,289.93002617348566,288.58732086597195,286.91845911090945,285.4740621694033
56.33,286.87959485761354,289.3396431344211,290.2895317322087,289.8599979923652,288.56183076406444,286.9183890201893,285.4800428150558
57.7,286.79685410695373,289.21618393421494,290.1775510445188,289.7903536956651,288.5349312117739,286.9167402801303,285.484998952109
59.07,286.71756048885106,289.0970318512984,290.06807481289434,289.7206907458531,288.50656608153787,286.9135729719022,285.48898386687284
60.45,286.6409558346117,288.9811400585152,289.9602739070552,289.6505939240173,288.4766292138889,286.90890427760314,285.4920267430287
61.82,286.5679521939333,288.8699798812016,289.85565193192656,289.58116113692296,288.44566378525116,286.90285940717973,285.4940978780184
63.2,286.4972996548769,288.76173178294397,289.75262124690477,289.5114517962958,288.4133215311691,286.8954087762456,285.495245292488
64.57000000000001,286.4298540183013,288.6577821053149,289.6526148291937,289.442539828532,288.3801677507499,286.88671862418386,285.49547271823633
65.94,286.36493878114885,288.55716325326915,289.5548177261126,289.373974716824,288.34606223601315,286.87679754636497,285.4948143774739
67.32000000000001,286.3019632128478,288.4590157449856,289.4584798855209,289.3053090838837,288.3108313133527,286.86561768217683,285.49328052441666
68.69,286.2417069606947,288.36461139283074,289.3649380475732,289.2375808065063,288.27506540250465,286.8533980194976,285.4909195601067
70.06,286.1835824817747,288.2730869521964,289.27342801646887,289.17032774088574,288.23858666297923,286.8401174937743,285.4877507399646
71.44,286.12707343803584,288.18367193332904,289.1832459974018,289.10309663272193,288.2011916765793,286.8257229506747,285.4837706620995
72.81,286.07289217320954,288.0975369780146,289.0956423630009,289.03688960327867,288.1634881528582,286.8104768465578,285.4790661042292
74.19,286.02014745590384,288.0133055624302,289.0092822926618,288.97076414746675,288.1249878766822,286.79420966363625,285.47359825121714
75.56,285.9695111192105,287.9320872907675,288.9253632881938,288.90569885268087,288.0863065230474,286.7772083127208,285.46747620266876
76.93,285.9205085548266,287.85315860305604,288.84320041150727,288.8412294682613,288.0472206245264,286.75940753584894,285.46069270697063
78.31,285.87271863888293,287.775868844118,288.7621615105333,288.776906337509,288.00749141747553,286.7407171751852,285.45322111029543
79.68,285.8267583876916,287.7012446988902,288.68337117314377,288.713673453691,287.9677420730581,286.72145476431774,285.4451994096287
81.05,285.78220555220173,287.6286304246717,288.60618785602855,288.65107194733145,287.9277300217486,286.7015323721997,285.4366049604368
82.43,285.738683501955,287.5574338951628,288.53001848863164,288.58865941573805,287.8872021500693,286.6808411759424,285.4273979554006
83.8,285.69676067504764,287.4886078719504,288.4559214403292,288.52734618370334,287.8467846859693,286.65972299509036,285.41774033866903
85.17,285.65605868974654,287.4215550801749,288.3832952939172,288.4666818486555,287.8062208573776,286.63807022284476,285.4075951189707
86.55,285.61623839426943,287.35573406874664,288.3115830894192,288.4062335879069,287.7652472505057,286.6157580454398,285.39691041449106
87.92,285.5778250731583,287.29203148098975,288.24178285696,288.34687907377133,287.72448952172095,286.5931471106301,285.3858677280958
89.3,285.5402086574248,287.22945289884365,288.17283532258716,288.2877523431454,287.6833827306671,286.5699434473253,285.37433204601524
90.67,285.50388829084136,287.1688446685439,288.1057011664185,288.22970986396444,287.6425504644706,286.5465176196158,285.3624957504415
92.05,285.46828990220035,287.10926389291086,288.03936271758135,288.1719029986776,287.6014229041169,286.52256078695706,285.3502107199376
93.42,285.4338884055577,287.0515193793065,287.9747454342567,288.11516749187393,287.56062041342324,286.49845154970654,285.337678649882
94.79,285.4003838144764,286.9951224707845,287.9113294914377,288.05907939998326,287.5198674977967,286.4740473998386,285.32483451793587
96.17,285.36750449684416,286.9396264822091,287.84863142047965,288.0032331381669,287.47888859575824,286.4491958444288,285.311603370431
97.54,285.3356922767125,286.8857886288342,287.78752753923345,287.94843430732857,287.43829739794467,286.42428441069717,285.29819822918415
98.92,285.3044495716669,286.83277769693274,287.7270943011419,287.8938786817928,287.39751997524377,286.3989757721329,285.28444406863446
100.29,285.27419804367764,286.7813192617708,287.66817743357893,287.840352342372,287.35716451719907,286.37366158089384,285.27055990557005
101.66,285.2446790994265,286.7309843873342,287.6103061417919,287.78745276426855,287.31695105517235,286.348182715612,285.2564657408977
103.04,285.21565709478153,286.68137890904654,287.5530412476998,287.73479547287536,287.2766026592107,286.3223740815433,285.24207465856693
104.41,285.1875260391249,286.6331847272863,287.49718563455895,287.6831381906768,287.23671798070865,286.2966311364936,285.2276126047642
105.79,285.15984974474554,286.5856626047981,287.4418975501055,287.63172111226635,287.1967277992949,286.27059862141476,285.2128852565865
107.16,285.13300529835107,286.539467539592,287.38795310405095,287.5812836127048,287.1572236719782,286.24467314326694,285.19812197036305
108.53,285.1067670891402,286.49421949528494,287.33492403603685,287.53144497778106,287.1179261825487,286.21868462775444,285.1832317018094
109.91,285.0809283536578,286.4495675805791,287.28240972155993,287.4818418939337,287.07856113472286,286.19246019923054,285.16811900037317
111.28,285.055842867943,286.40612949772054,287.23114863196076,287.4331870974494,287.03970857050246,286.1663963970306,285.15301674945556
112.66,285.03112451241776,286.3632427006157,287.18037040354346,287.3847640174609,287.0008101927611,286.14012847850097,285.1377178178037
114.03,285.0071127346864,286.3215018187954,287.1307899001471,287.3372681622526,286.9624378694756,286.11405189633655,285.12245651209804
115.41,284.9834389082405,286.28027148537365,287.08166280064216,287.2899997864101,286.92403897203775,286.08780005894533,285.1070221318034
116.78,284.9604290427212,286.2401245808294,287.03368147596643,287.2436376009555,286.88617687673144,286.06176660829345,285.0916497520369
118.15,284.9378935469494,286.20073594855035,286.98646818920685,287.197830705227,286.84857866612924,286.03577360881496,285.07623849404706
119.53,284.9156574483594,286.1618036103838,286.93966832409194,287.1522444402359,286.81097859737554,286.0096435956468,285.06068579130834
120.9,284.8940281332052,286.12387011636076,286.8939424735987,287.1075331350341,286.7739268489659,285.98376632469535,285.0452267957926
122.28,284.87267549110123,286.08636069907607,286.8486058753776,287.0630376841227,286.7368873357426,285.95777454024545,285.0296451624322
123.65,284.85189539079397,286.0497990337186,286.8042990930792,287.0193966497926,286.7004011793417,285.93205472985437,285.01417546817845
125.03,284.831371349394,286.0136320574436,286.7603592226999,286.97596660751026,286.66393966337307,285.90624071611677,284.99860024662917
126.4,284.8113883815392,285.978365570645,286.717407671747,286.93337074699485,286.6280347035719,285.8807152560048,284.98315306367056
127.77,284.79178447553926,285.9437176101072,286.67510876143604,286.8912863018169,286.59242412103504,285.85529899665073,284.9677283805225
129.15,284.7724092167189,285.9094250084829,286.6331463973831,286.8494055109384,286.55685398733726,285.82981526226456,284.95222089968144
130.52,284.75353248734217,285.87596849661384,286.5921147991197,286.80832924832,286.5218422270645,285.80464048406924,284.9368619648199
131.9,284.734868149987,285.8428438766141,286.5514013558643,286.7674517602832,286.486879837866,285.7794138467338,284.9214336362531
133.27,284.7166766725555,285.81051619033883,286.5115830741931,286.7273594881512,286.4524753195608,285.7545071439565,284.9061653671385
134.64000000000001,284.6988119946065,285.77872898166515,286.4723501661113,286.68774853297,286.4183757257366,285.7297428217036,284.89095066949
136.02,284.68113800887056,285.7472421569591,286.4334103698252,286.6483291342471,286.3843367616332,285.7049470841796,284.8756842873019
137.39000000000001,284.66390200397467,285.71649866923946,286.39531618875833,286.60966677903576,286.3508527474942,285.68048427029913,284.86059232965493
138.77,284.64684377460213,285.6860367051224,286.3574999200213,286.571191250861,286.3174356395713,285.6560019185071,284.8454590739038
140.14000000000001,284.6302023765692,285.65628534158316,286.320498508972,286.53345448253725,286.28457028872754,285.63185911258194,284.8305081062124
141.51,284.6138453172304,285.6270101557159,286.28402522125424,286.4961703938452,286.2520137518406,285.60788177723174,284.8156334741313
142.89000000000001,284.597648728845,285.59799109102187,286.2478091004413,286.4590662103227,286.2195319212507,285.58390036052833,284.8007311921573
144.26,284.58184009637546,285.5696376169348,286.21236488392515,286.42267418255284,286.18759550505183,285.5602657435156,284.786020707575
145.64000000000001,284.56618159828315,285.541525009912,286.17716521071094,286.38645756075533,286.1557380598572,285.53663596531385,284.77129053251554
147.01,284.5508934632518,285.51405037821985,286.142710680347,286.35093586191715,286.1244209089268,285.5133562572707,284.7567571513805
148.39000000000001,284.5357459901663,285.4868025768259,286.1084889555053,286.3155851726569,286.0931863309231,285.49008930899515,284.74221121102283
149.76,284.52095249450804,285.46016688931775,286.0749870105373,286.2809125895801,286.06248632623135,285.46717459459666,284.7278661007086
151.13,284.50639636178516,285.4339351122783,286.0419464431087,286.2466552647242,286.0320926307624,285.44444487976443,284.7136184409963
152.51,284.4919681412168,285.4079111759373,286.0091225963974,286.21256256103857,286.0017858134024,285.4217381213648,284.6993675138196
153.88,284.4778713815469,285.3824635766756,285.9769829298929,286.1791235351326,285.972004051457,285.39938501947574,284.68532187001813
155.26,284.4638948823669,285.3572123630137,285.94505015441433,286.1458450001112,285.9423114012981,285.37706068559015,284.6712783276287
156.63,284.45023603637054,285.33251540004983,285.9137792658486,286.113204338747,285.91313692620963,285.35508989512886,284.657442100913
158.01,284.43669041284886,285.30800424309325,285.8827060954979,286.0807201449446,285.88405334712127,285.33315297522745,284.6436127475433
159.38,284.4234495164827,285.2840265519468,285.8522735981979,286.04885841275234,285.85548071450177,285.3115687439199,284.6299920789155
160.75,284.41040981384873,285.2603961110955,285.82224793675044,286.0173776284664,285.827205657722,285.2901782652,284.6164807314887
162.13,284.3974738169292,285.2369370973911,285.7924073649276,285.9860474818389,285.79902343210597,285.2688281202449,284.60298240742407
163.5,284.38482467277964,285.21398262221356,285.7631775419154,285.95531742181544,285.7713407919647,285.24782817606496,284.58969372767956
164.88,284.37227349611976,285.1911908589333,285.7341250531635,285.9247342376603,285.7437518433967,285.2268721786994,284.57642158071036
166.25,284.35999814201966,285.16888566861064,285.70566448139607,285.8947366696508,285.7166546134952,285.20626402412904,284.5633590800648
167.62,284.3479030890413,285.1468944899138,285.67757763237313,285.8650973560061,285.68984625806746,285.18585121188414,284.55041029376036
169.0,284.3358982182921,285.12505413689877,285.64965740174523,285.83559947108216,285.66313232929076,285.1654868426798,284.53748251511655
170.37,284.3241538503931,285.10367524891615,285.62230243403314,285.8066661959342,285.6368980139984,285.1454659027668,284.5247635664867
171.75,284.3124949543081,285.0824399562763,285.5951074792777,285.77787083606427,285.6107582935272,285.1254958644033,284.5120681470019
173.12,284.3010870659239,285.06165047043055,285.5684609578553,285.749626500689,285.5850899471011,285.1058658061535,284.4995805370368
174.5,284.289760288237,285.0409978567082,285.54196824172266,285.7215166621125,285.5595161391901,285.0862887234467,284.4871186464171
175.87,284.27867555444817,285.02077619630904,285.5160078410844,285.69394460124454,285.5344053759034,285.06704782930996,284.4748632152432
177.24,284.2677470917735,285.0008297438169,285.49038124569677,285.6667013676659,285.50956917813045,285.0479999660676,284.4627235790277
178.62,284.256893793875,284.98101094690674,285.4648998324236,285.6395876812499,285.48482706985146,285.0290075489201,284.450612392431
179.99,284.24627001607615,284.9616022285935,285.43992782152156,285.6129925405355,285.4605354199571,285.01034509906754,284.4387051107271
181.37,284.2357177873085,284.9423155297438,285.41509564825,285.58652375401266,285.43633734936907,284.9917393690779,284.4268277746673
182.74,284.22538727048357,284.9234258193478,285.3907583479409,285.560561073534,285.41258130035203,284.97345915222854,284.41515233409734
184.11,284.2151987940349,284.90478799225184,285.3667301045061,285.5349077621878,285.38908869141056,284.9553680234962,284.4035920626039
185.49,284.20507691882915,284.8862644286429,285.3428342456748,285.50937618070606,285.3656886316219,284.9373350361837,284.39206355224076
186.86,284.1951658020531,284.86811938779505,285.31941254590066,285.4843326424951,285.34271795269945,284.91962052639064,284.38073354772393
188.24,284.185318266358,284.8500838487766,285.29611859330845,285.4594078500563,285.3198389833226,284.9019648210019,284.36943626466905
189.61,284.17567463255,284.8324152104177,285.27328562878773,285.43495941570956,285.2973809834114,284.884622700873,284.35833501136636
190.99,284.16609176355877,284.8148516130651,285.2505760205457,285.4106268221607,285.2750137498376,284.8673398472831,284.34726726211585
192.36,284.15670627335413,284.7976438127936,285.2283147184813,285.38675918952316,285.25305911357543,284.8503655621956,284.33639292373573
193.73000000000002,284.1474460561214,284.78066002375306,285.2063320529915,285.36317567572934,285.2313517551532,284.8335727377148,284.3256308562546
195.11,284.138242729204,284.7637751029355,285.184466587368,285.3397037932479,285.20973358580113,284.8168395426579,284.3149031718125
196.48000000000002,284.1292275812074,284.74723023967476,285.16303128359357,285.31668031889023,285.1885155736694,284.80040722035295,284.30436475388984
197.86,284.12026694544994,284.730780433463,285.1417093282948,285.29376575791076,285.16738560585947,284.7840345774933,284.2938611332692
