time (s),temp0,temp1,temp2,temp3,temp4,temp5,temp6
0.0,320.78663359993385,308.02002094226407,300.0780563650016,292.2253996596882,288.7519214527318,286.09466440710656,284.46
1.37,315.1912275093316,304.9898961190855,296.9768252269311,290.9309351088327,287.71860252590824,285.4600885432697,284.51246711769625
2.75,312.6167040265627,305.16119294040413,297.08844305979505,291.15733856359583,287.78216269729154,285.5551046747883,284.5729941274001
4.12,309.51301030616173,305.20071951338963,297.2753820996555,291.3991066781182,287.8795339639914,285.66300027598754,284.56527283610336
5.49,306.6251312855689,304.97756023766067,297.4658273387116,291.6220651252399,287.99315222038626,285.75706958504264,284.52707962051005
6.87,304.1226862787722,304.51916252144554,297.6329570677158,291.8315131987588,288.11824548348983,285.83675426006846,284.482411810939
8.24,302.029737105289,303.9046133845808,297.7529333194579,292.0272569655672,288.2478434554905,285.9044597902523,284.44231840283373
9.61,300.26656465625524,303.1978033038264,297.81564271870667,292.2105458008459,288.3790951366526,285.96474084032917,284.410053192677
10.99,298.76109279458376,302.44233459621614,297.8185398763548,292.38028873075945,288.5104146529058,286.0211191301706,284.38618279658033
12.36,297.4824627063634,301.682194134316,297.76531863631897,292.53120033972317,288.63808681758815,286.0749583597775,284.3706283183349
13.73,296.3773079783492,300.93262808805935,297.6630614139191,292.66215766136486,288.76164970758913,286.128045844088,284.3623768072784
15.11,295.4066618645662,300.20070122481025,297.51851640103746,292.77230037443917,288.8807338894573,286.1815333641176,284.3605470243766
16.48,294.55927044100343,299.50383683057913,297.3416409566735,292.8593657425925,288.99255284305156,286.234972219015,284.3643060878372
17.85,293.80795083172046,298.8399046445623,297.1386340465869,292.9243743614816,289.0970934535838,286.28876491023163,284.3728343595528
19.23,293.1325468734169,298.2055159073437,296.9139767680892,292.9683318472152,289.19430489070487,286.3431119980065,284.3855255478857
20.6,292.5304037923837,297.6096077886774,296.6761529832552,292.9918031959693,289.28223324962806,286.39689755542446,284.4015450296579
21.97,291.98639409893997,297.0464114254898,296.42789214141055,292.99664655001135,289.36125275127984,286.450113848994,284.42037883732536
23.35,291.4889753791237,296.5106659964144,296.1708111981942,292.98431560526063,289.4316490458832,286.5027047287142,284.44164255820215
24.72,291.03866103431307,296.0084153547921,295.9114723173828,292.9566429636708,289.4923613164771,286.55347328768164,284.46452040438146
26.09,290.62615789041297,295.5338720154903,295.6502863898845,292.9152191126438,289.5440207282285,286.602395274528,284.48869191722207
27.47,290.24419695423177,295.0820611792959,295.387136770069,292.8611632538015,289.58709945311915,286.6494298981694,284.5139109006552
28.84,289.89440480036444,294.6577825095768,295.127250763663,292.7967245432111,289.6212483165485,286.69356625844466,284.53941358386436
30.21,289.57060098266544,294.25601437730353,294.8698144599752,292.7229014660612,289.64714628386423,286.7348759152351,284.5650191918512
31.59,289.2678525546279,293.872492441616,294.6138310944859,292.64030141010494,289.6652749866903,286.7733986216247,284.5905852266625
32.96,288.9881107635665,293.51131172299563,294.3636562912913,292.55124622859597,289.675780575883,286.80839592435984,284.6154476194339
34.33,288.7270071783512,293.1682682163792,294.1179007570596,292.45617253541786,289.67924514256345,286.8400250873504,284.63953484394193
35.71,288.4809965498001,292.83979107771637,293.87517151777706,292.3552345763866,289.67605110686964,286.868387379075,284.6627859297501
37.08,288.25204526758176,292.52948092102156,293.63923053358707,292.25070495444646,289.66667449232745,286.8930176470528,284.6846688747515
38.45,288.03691715929165,292.23383497256725,293.4084595965245,292.1425851521658,289.65153548359433,286.9141136550276,284.70519208100103
39.83,287.83294858526267,291.9498647380855,293.18132361760206,292.0306890566913,289.63087379055696,286.9317991537296,284.7243525764948
41.2,287.642002087518,291.68077960623185,292.9611527155239,291.9172022143122,289.60538437821737,286.94585128701993,284.7417619602351
42.57,287.4615901767051,291.42364395595644,292.7462774587346,291.80181805650375,289.57531270801184,286.9564653339305,284.75747858872154
43.95,287.2896402451068,291.17593818171764,292.535149590738,291.68411441467254,289.54075165897535,286.9637537755167,284.77153341547717
45.32,287.1278709968754,290.940544252829,292.33076518818893,291.5661816633682,289.50254308014803,286.9676976388077,284.78367781511605
46.69,286.9743129942448,290.714978442702,292.13149180281863,291.4475067836561,289.46077119726175,286.9684596381103,284.7939930837126
48.07,286.8273074209796,290.4970952493522,291.9358310299427,291.3275126223345,289.4153966721818,286.96611864776906,284.8025228627172
49.44,286.68842249007804,290.28949579350973,291.74650789400033,291.208196018426,289.3673608190296,286.9608230220826,284.80914584334056
50.81,286.55606072687067,290.090056724916,291.56196820745254,291.08891209722157,289.31661029654987,286.95268569064734,284.8139448260891
52.19,286.428863479697,289.896931996704,291.3807919412942,290.9689874590768,289.26299476543454,286.94173996593804,284.81695971755244
53.56,286.3082555874844,289.7124790943952,291.20547657458246,290.8503298256949,289.20752272576107,286.92826956520156,284.81818037645144
54.93,286.1929149423122,289.5348641381996,291.03456291191367,290.7322150808933,289.15002873637303,286.9123301703037,284.8176759408978
56.31,286.08170714923517,289.3624827615437,290.86671983462696,290.61391468896807,289.0902731916465,286.8939051514119,284.81547132167293
57.68,285.97592592097266,289.1974798314993,290.7042493114372,290.49725214535613,289.02930889357344,286.8733865077035,284.81165068692053
59.050000000000004,285.874458320764,289.03825623895887,290.5457911313102,290.3814603905865,288.96688180855324,286.85077172785844,284.80626002330604
60.43,285.77634172337207,288.8834046405777,290.39010434758995,290.26578394835013,288.90268270369245,286.8259947828973,284.7993025283068
61.800000000000004,285.68275224138006,288.73488361569076,290.2393202610838,290.1519667594588,288.8377918256919,286.79953327742317,284.79094068223196
63.17,285.59273935742124,288.59128644653606,290.09217518200245,290.0392234885485,288.77188676774927,286.7713295321651,284.78119237343105
64.55,285.5054748482235,288.4513680991377,289.94751496871385,289.92679076678803,288.70460537490334,286.7412715755238,284.7700359258496
65.92,285.42203034717903,288.3169233970829,289.80732027502773,289.8163372757284,288.6370425295531,286.70990370814263,284.7576977010467
67.29,285.3415838729006,288.186704912708,289.67041838476194,289.707075942515,288.5688242102957,286.67711829020953,284.7441658709612
68.67,285.2634143242244,288.0596027000444,289.535736456664,289.5982481832108,288.4995490978359,286.6427623931665,284.7293932816864
70.04,285.1885008916095,287.93726718108934,289.4051210757767,289.491451344591,288.43031675974214,286.60743127152926,284.7136575356329
71.41,285.1161250152936,287.8185841118311,289.2774836800457,289.38590753215595,288.3607151704955,286.5709735349,284.6969177327949
72.79,285.0456523607496,287.7025570747816,289.15182642205554,289.28087122813685,288.2903149748191,286.53320091276856,284.67910233582137
74.16,284.9779804143359,287.5907087508381,289.02987580299396,289.17787204270996,288.2202125894798,286.49474652350096,284.66052931516646
75.53,284.9124750522951,287.4820372793092,288.9106202909692,289.0761483110461,288.14996891521565,286.45542169617,284.6411307614839
76.91,284.84857322281437,287.3756425204081,288.7931306315771,288.9749728471386,288.0791354718171,286.41500850468896,284.62081287999126
78.28,284.78710015002014,287.2729337790765,288.6790251907827,288.8758108429248,288.008799314861,286.37416706307164,284.5999247667971
79.65,284.7274915401884,287.17300483777217,288.5673625417198,288.7779212709968,287.93850299599364,286.33267770492466,284.578374359474
81.03,284.66924364288917,287.07503789266013,288.4572758902338,288.6805984841181,287.86778600485974,286.2902982784447,284.55604827701126
82.4,284.61311765702,286.98034127788185,288.35028576805865,288.5852463338558,287.7977211117516,286.24770688924576,284.5333189490955
83.77,284.55860770522423,286.88809081634633,288.2455143735896,288.49114703814985,287.72783946005035,286.2046587263209,284.5100733724109
85.15,284.50525992480345,286.7975396653015,288.1421516796735,288.39761829765985,287.6576741382721,286.1608924079739,284.486181459856
86.52,284.45377864692614,286.7099059181452,288.04162932360526,288.30600549248413,287.5882797457647,286.1170965935975,284.4620324461256
87.89,284.40370736570765,286.624436284992,287.9431271989431,288.2156154754515,287.5191815277359,286.07300662091626,284.43749566327966
89.27,284.3546346081411,286.54044552106956,287.84588685780227,288.12579016131605,287.44991062571347,286.0283463584914,284.41242718657196
90.64,284.30721404668816,286.4590707767741,287.75125884236706,288.03781914376196,287.38150043171663,285.98380889874824,284.38722761423315
92.02,284.2606986115698,286.37904739464625,287.65780478295386,287.95040534645346,287.31297959539114,285.9387877063658,284.36156488278334
93.39,284.2157112044905,286.3014630579451,287.56682494954663,287.8648025395668,287.24536601521584,285.89397598231056,284.3358446123561
94.76,284.17186219307507,286.22566294617815,287.4775838116374,287.78035964645414,287.17818434986697,285.84908609943585,284.30991358954896
96.14,284.1287979058301,286.1510478875551,287.3893987793608,287.69645927066375,287.1109699313559,285.80382583844425,284.28361075737655
97.51,284.0870991622211,286.0786374896766,287.30349995951417,287.61430351774214,287.0447158837866,285.75888500289045,284.25734602014415
98.88,284.04640922611037,286.00782649175403,287.21919646203315,287.5332663554157,286.9789506686644,285.71396731296034,284.23095638503264
100.26,284.00640304809957,285.93805930062496,287.1358458864232,287.4527543807567,286.9132154471529,285.6687751655977,284.2042736970593
101.63,283.9676236193192,285.8702938574099,287.0546137090357,287.3739203189096,286.84847714215533,285.6239914239573,284.17770887757484
103.0,283.9297428484037,285.8039687081017,286.9748497329019,287.296162690267,286.78427032609466,285.5793143281608,284.15109160003396
104.38,283.8924607261368,285.7385669450415,286.8959483018277,287.2189115149719,286.7201438119225,285.5344435146529,284.12424866707954
105.75,283.8562861157172,285.6749904419921,286.8190151603689,287.14327229689997,286.65703731795526,285.4900520606361,284.0975893463969
107.13,283.82066074531764,285.6122668079299,286.7428905346108,287.0681266598033,286.594038887064,285.445513354555,284.07074366012336
108.5,283.78607251985903,285.5512632610069,286.6686427526173,286.9945497330061,286.5320696967956,285.4014926519027,284.0441185382153
109.87,283.7522335345798,285.4914809103366,286.59568187936827,286.9219794665218,286.47067829679946,285.3576848114752,284.0175360458608
111.25,283.7188791202241,285.4324584030593,286.5234568915443,286.8498833655332,286.4094292053294,285.3137895913265,283.9908184292849
112.62,283.6864682012111,285.375014730906,286.452983378605,286.7792926882752,286.3492154708006,285.27045897048737,283.96436759021464
114.0,283.6545040889086,285.31827616896146,286.38320223744324,286.7091633000349,286.2891626776014,285.22707516187586,283.93781124830133
115.37,283.62342781916254,285.2630317515595,286.3150958859675,286.64049822455263,286.23014497369604,285.1842804312751,283.911547093696
116.74000000000001,283.5929842799973,285.2088346882656,286.2481266567733,286.5727726494375,286.1717281149574,285.1417718169347,283.88539423118846
118.12,283.5629378515256,285.15527020512565,286.18179115187155,286.5054893943523,286.11349476910556,285.0992537172878,283.85917418913806
119.49000000000001,283.53370470927416,285.10308544779116,286.11702485356034,286.43961068380867,286.05629073995846,285.05735284804246,283.8332773079369
120.86,283.50504661756986,285.05186084177654,286.05331821202356,286.37463293223186,285.9996931035777,285.0157695663058,283.807522665083
122.24000000000001,283.4767429918671,285.00120607375305,285.9901935513767,286.3100790689354,285.94329613455096,284.974212667619,283.7817327875888
123.61,283.44918722363883,284.9518296225839,285.9285424353555,286.24687224176915,285.88791741779727,284.933292403074,283.75628966498635
124.98,283.42215622959986,284.903336601667,285.8678813340186,286.1845292640306,285.8331458376529,284.89271361527904,283.7310133955633
126.36,283.39544297998754,284.8553589701793,285.8077564420926,286.1225923821118,285.7785876017038,284.8521904199981,283.70572835348645
127.73,283.36941991294105,284.808569400813,285.7490181297985,286.06194730751423,285.7250323485344,284.8123159576403,283.6808074117657
129.11,283.3436929086974,284.76226286675603,285.69078839566004,286.0016968356078,285.67169680087784,284.77251338710096,283.655892704187
130.48,283.31862133252054,284.7170895767529,285.6338915034199,285.94270256461425,285.6193521551572,284.7333641801687,283.63135069128435
131.85,283.2940041705014,284.67269105920496,285.57788324412485,285.884513523427,285.567607626924,284.69458263529026,283.6070050138253
133.23,283.2696542383301,284.62873228300543,285.52234601383543,285.82670245694,285.5160896838139,284.65589327509247,283.58268459880327
134.6,283.24591254521255,284.5858317482502,285.46806687685256,285.7700960935559,285.46554228169254,284.6178598594209,283.5587459341593
135.97,283.22258970521403,284.543650402272,285.4146230730484,285.71426174034946,285.4155870039034,284.58020323553916,283.53501563960657
137.35,283.1995090437328,284.5018708987819,285.3616168124387,285.6587894443506,285.36586251471886,284.542654831758,283.5113260461661
138.72,283.17699454365226,284.4610821486095,285.30980007519673,285.60447250974283,285.3170860660485,284.50576056126886,283.48802335725895
140.1,283.15470731993867,284.4206725532207,285.2584005208461,285.55050739793734,285.2685419633965,284.4689831830827,283.4647699502041
141.47,283.13296065940614,284.38121234637157,285.20814779958005,285.4976658753676,285.2209299644764,284.4328566899379,283.4419050503333
142.84,283.11158237085994,284.3423915047632,285.15865186508734,285.44554407670483,285.1738922545212,284.3971138284395,283.4192612680381
144.22,283.0904113943961,284.3039192317218,285.1095452397474,285.3937593377201,285.1270876598231,284.36149824731217,283.3966773975919
145.59,283.06974590013624,284.2663392468043,285.0615256300523,285.3430522681824,285.0811902596587,284.3265261508734,283.3744821155278
146.97,283.0492757853182,284.2290894309093,285.01387829828514,285.29267277393217,285.0355255982635,284.29168675434187,283.3523525392589
148.34,283.02928968749234,284.19269671252755,284.967280574927,285.2433413842534,284.99075098625144,284.2574844764761,283.3306102787539
149.71,283.0096303387945,284.1568765822579,284.9213718269647,285.1946811120083,284.9465289010277,284.22366472029154,283.3090948196125
151.09,282.99015030723194,284.12136169373423,284.8758119253662,285.1463347389613,284.90253788453253,284.18998385039913,283.2876520743346
152.46,282.9711247100306,284.0866550659579,284.83124899340555,285.098993740797,284.8594107022632,284.15692881829074,283.2665930819849
153.84,282.9522687823447,284.0522386084496,284.7870205183361,285.0519578566697,284.8165128501876,284.12401568260407,283.24561050715533
155.21,282.93384908652183,284.01860015498613,284.743755957942,285.00589983424766,284.77446110495987,284.0917198905652,283.22500837053593
156.58,282.91572143528396,283.9854778140491,284.70112127903593,284.96046774652916,284.73293769266513,284.05979984643375,283.20463356267794
157.96,282.89775040296655,283.9526251207491,284.65880116035294,284.91532810345643,284.69164024012105,284.02802478737016,283.1843394750728
159.33,282.88019037995684,283.92050822846664,284.61739825857137,284.8711265521036,284.6511621710727,283.99685319647557,283.1644197080189
160.70000000000002,282.8629042802014,283.88887762621357,284.5765933093528,284.8275253748218,284.6111972269819,283.9660513114336,283.1447257338658
162.08,282.84576322069967,283.85749831632927,284.53608479501867,284.7842045372994,284.5714541255371,283.93539605915566,283.12511550911086
163.45000000000002,282.8290101309768,283.82681595963805,284.4964498800748,284.74178369057637,284.5325036655019,283.905329321838,283.1058723644403
164.82,282.81251454155404,283.79659264550486,284.4573832707138,284.6999387438122,284.49405082787376,283.87562513517383,283.08685240362104
166.20000000000002,282.79615368133494,283.766604144541,284.4185965254765,284.6583625679301,284.4558151331462,283.8460680425654,283.0679181620221
167.57,282.7801596679978,283.73727671728795,284.3806425378946,284.61764987554517,284.41834548527,283.8170837217311,283.0493428856943
168.95000000000002,282.7642941199544,283.70817402337167,284.3429581256403,284.57719851683373,284.38108958779407,283.7882462505391,283.03085414507575
170.32,282.74878227215027,283.6797099397381,284.3060806221846,284.5375871249843,284.34458213564375,283.75997072374196,283.01271857141785
171.69,282.73350374294773,283.65166436166896,284.26972642151543,284.4985131029423,284.3085461936224,283.73204399530226,282.9948000048614
173.07,282.7183451088757,283.6238296322063,284.23362741613516,284.45968967950967,284.27271862363835,283.70426306127825,282.9769685680868
174.44,282.7035217572005,283.59660186615497,284.19829853320965,284.4216722147067,284.23761343562546,283.67702752429915,282.959481172549
175.81,282.68891885656416,283.5697708162696,284.1634682964406,284.38417030282534,284.2029641273504,283.65013176546904,282.9422062600684
177.19,282.6744281413879,283.54313802234253,284.1288799881961,284.3469087209046,284.1685175461843,283.6233800613746,282.92501843766837
178.56,282.660255668748,283.51708272438026,284.09502715661984,284.3104204989238,284.1347677320183,283.5971569695915,282.9081651400451
179.94,282.64619065780323,283.4912179144493,284.0614079551691,284.2741660007435,284.10121677078155,283.57107645892137,282.8913986117774
181.31,282.63243320635297,283.4659120319249,284.028502203495,284.23866385692156,284.0683457651689,283.54551329782976,282.87496010358996
182.68,282.6188770152918,283.44097006483844,283.9960573374917,284.2036428961741,284.0359049040528,283.5202740804973,282.8587255984958
184.06,282.6054217681506,283.41620779679295,283.9638344212807,284.1688461169533,284.0036569852539,283.49517485592156,282.84257701642474
185.43,282.5922590104305,283.3919781374866,283.9322934764353,284.13477130595305,283.97206430715124,283.4705761093464,282.8267465621845
186.81,282.5791931819183,283.3679214878751,283.9009671446407,284.1009145350498,283.94066058148735,283.446115417966,282.81100125985245
188.18,282.56641035651546,283.34438080456175,283.870302723969,284.0677601490698,283.90989593461364,283.4221439894103,282.795567425088
189.55,282.5538119762591,283.32117498055163,283.84006507671603,284.0350549253037,283.87953635838926,283.39848014747605,282.780328355475
190.93,282.54130495698695,283.29813282938716,283.81003167483226,284.00255886716144,283.84935972837206,283.3749512086776,282.76517302987446
192.3,282.52906750820665,283.27558297916045,283.7806314543673,283.9707368606759,283.8197984916168,283.3518948640062,282.75031916678046
193.68,282.51691797283627,283.25319098462035,283.751428942223,283.939118306063,283.79041619183965,283.3289711850042,282.73554796779075
195.05,282.50502952177476,283.2312762802411,283.7228412660041,283.9081555400892,283.76163383982816,283.30650909482654,282.7210715645983
196.42000000000002,282.4933106538798,283.20967049910683,283.6946493832564,283.8776120913438,283.7332323499841,283.2843381186544,282.7067802933742
197.79,282.48175860867644,283.1883687970822,283.6668474526332,283.84748225433094,283.70520701074963,283.262454985018,282.6926722104731
