time (s),temp0,temp1,temp2,temp3,temp4,temp5,temp6
0.0,330.9281844985912,312.78557091780846,301.7603483718078,293.91809948953227,288.7335853982819,285.547106729769,284.28
1.37,323.0207129767953,308.56376280412564,298.724900682101,291.9186717147901,287.50577523071183,285.07324625984813,284.31804433502634
2.75,319.6218120431375,308.9228537885126,298.93632322920956,292.09176373726376,287.65253961670095,285.20331283013985,284.33117200809863
4.12,315.55979064238085,309.1202596705342,299.2170926927224,292.30936175993253,287.83265444184593,285.3424735637783,284.2597126139085
5.49,311.79805104579776,308.95306654515144,299.49618416714577,292.53090220102,288.01454600109156,285.4626911977576,284.1555805253626
6.87,308.5517610561814,308.45851852629596,299.7436079558204,292.75605370735997,288.1964657484262,285.5627622561733,284.05009718993415
8.24,305.84711584020806,307.74307344315525,299.92883782265494,292.97902220310124,288.3741372653765,285.6452439607393,283.9577966254584
9.61,303.5768169282294,306.89499796588103,300.03903279041555,293.19660161818615,288.5476636985572,285.7159864545034,283.88158230845295
10.99,301.6448408387864,305.9746279635419,300.07103387908757,293.4042311062414,288.71734683028086,285.7798018541746,283.82096045255275
12.36,300.00903752958857,305.040553542557,300.02918442726735,293.5930722141654,288.8799196223058,285.83904343257916,283.77532353841383
13.73,298.59913406716197,304.1146842022353,299.92287150728487,293.76003236139553,289.0357840915279,285.89641450780425,283.74235599904813
15.11,297.3639895304839,303.20765608989393,299.7610440280979,293.9029181368673,289.1850724364762,285.9537102740379,283.7201678179131
16.48,296.28817198929846,302.3423006877315,299.55626856910925,294.01800783422556,289.3246752448839,286.01084208839944,283.70748806616257
17.85,295.3362998905093,301.5167840418926,299.31680072909927,294.106049520658,289.4548210012622,286.06849071329964,283.70273604828327
19.23,294.4822137617413,300.72739264082423,299.04864449062376,294.16797303270886,289.5755900999289,286.1270136454133,283.7047448359417
20.6,293.7220628379532,299.98557127528994,298.76249202479806,294.2041348733246,289.68464443750713,286.18526957516406,283.71242399737554
21.97,293.03635345201855,299.2843448431261,298.46207788083547,294.21675307390143,289.78250392665694,286.2432521630939,283.7248296976865
23.34,292.4145746163551,298.62198362477204,298.1519608300653,294.20773795210295,289.86896423315756,286.300460824238,283.7411231939363
24.72,291.8441601236607,297.9919946077337,297.8334990169762,294.17882086842786,289.9445008729271,286.3567739332036,283.76069740585564
26.09,291.32620919336404,297.40130022505144,297.5142698315104,294.1324403343436,290.00814119910575,286.4108600518492,283.7825750703801
27.46,290.85045483575385,296.8429900834926,297.1943208957068,294.0703975175784,290.0607211599906,286.4626553254554,283.80626008871144
28.84,290.40882394791976,296.3111544547743,296.8731764255598,293.9939277364489,290.1028539006542,286.51207900544335,283.83136729281017
30.21,290.00345824938285,295.8114218672027,296.55694026854934,293.9058560370582,290.13435231326616,286.5580418727977,283.8570135247857
31.59,289.62477297689986,295.3345160060159,296.2421284875762,293.8064881664278,290.1561581314356,286.60089968606593,283.8831015452391
32.96,289.27513989599555,294.88551411005955,295.93416068558395,293.6986974969755,290.16846782564176,286.6397794696368,283.90883637676285
34.33,288.9490383408596,294.4591725147888,295.631381071138,293.58308653107946,290.17200384289714,286.67481151410794,283.9340402200519
35.7,288.6441468407348,294.05392232822334,295.33426008256504,293.4608097746797,290.1673029696432,286.7058557561708,283.9583922134427
37.08,288.3564202610771,293.66556911652225,295.0410295035929,293.33194689636485,290.15478246354337,286.73300189723494,283.98177950836725
38.45,288.08824277831286,293.29839810009327,294.7561650161615,293.1992891689523,290.1351524465048,286.75580724338676,284.00362498022145
39.83,287.834112599706,292.9458005869175,294.47564723884705,293.0617273374309,290.1086451271086,286.77459327569426,284.02404577293436
41.2,287.5963243199097,292.6117488373692,294.2036093626068,292.92197991148754,290.07613961786456,286.78910919173444,284.0425815974213
42.57,287.3717565407893,292.2925862391946,293.9380073169605,292.77969920062606,290.0379381217595,286.7995553382757,284.0592553843756
43.95,287.15781106074667,291.9851755878998,293.67694104138013,292.63438652731367,289.99415290912566,286.8060366920768,284.0740654323151
45.32,286.9566095829533,291.69308425795094,293.42412799654835,292.4886433525343,289.94584490168296,286.8085516119692,284.08672155710593
46.69,286.7656872415664,291.41322167663634,293.17756083455816,292.34185531039003,289.8931150424345,286.80726904118853,284.09728705005693
48.06,286.5842608116827,291.14483756145364,292.9371270434302,292.1944009605461,289.8363390452742,286.8023090008817,284.1057316550064
49.44,286.410395075358,290.88539686885923,292.7010094405208,292.0455321052316,289.77541509493665,286.79372645845314,284.11208189582504
50.81,286.2459684671245,290.63801553670186,292.47249016686834,291.89769683118277,289.7115577560172,286.7817837677549,284.1162503130399
52.19,286.08799422797483,290.3984806115016,292.2480838972296,291.7489923745244,289.64414748831365,286.7664512312482,284.11831666997097
53.56,285.938234793929,290.16971200039103,292.0308897577975,291.6017935665227,289.57445000214017,286.7480977755032,284.1182818788339
54.93,285.7950419528123,289.94943159452316,291.8191055987587,291.45521096246017,289.50225488941356,286.7267717668579,284.1162094739903
56.300000000000004,285.65798115950906,289.73716769796084,291.61257469828416,291.309408055474,289.427810908117,286.70262152003033,284.11214887301696
57.68,285.5257169190061,289.5310148130736,291.40968834434864,291.16347184298974,289.3507843893996,286.67558955200644,284.1061058351747
59.050000000000004,285.3998004418689,289.3335506186908,291.2132303094535,291.01963887894914,289.2725078818765,286.6462149078768,284.09823048510304
60.43,285.2780549408083,289.1415069983314,291.0201764347023,290.8759142016227,289.1920413950434,286.6142152546504,284.0884755971548
61.800000000000004,285.1619367856504,288.9573114918399,290.8331725901568,290.7344689241935,289.1107374609493,286.58019661401056,284.0770531143057
63.17,285.05026399296065,288.7792183577815,290.65065460928935,290.5943312126007,289.0281904506479,286.5440737234602,284.06397150722114
64.55,284.94200693368134,288.6056824901393,290.4711931259614,290.4545553032845,288.9439457551973,286.5056960186683,284.0491924476518
65.92,284.8384931781254,288.43892923140794,290.29724758544114,290.3172186677429,288.8593730716029,286.46575088626474,284.0330059486246
67.29,284.73870143284324,288.2774109237691,290.1273653196015,290.1813455236281,288.77400277793083,286.4240934059925,284.01538635610586
68.67,284.64173588951763,288.11975037809725,289.96021674022484,290.0459946598556,288.68733176900423,286.38052410564774,283.9962659536121
70.04,284.54881007826793,287.9679945818958,289.7980953638208,289.9131547824349,288.60073465366486,286.33579238601635,283.97599732235693
71.41,284.4590317432174,287.82076130210555,289.63965192242586,289.7818602856394,288.5136948165898,286.28970085390483,283.95452081721135
72.78,284.372236226261,287.67784214950973,289.4847668216722,289.6521264382137,288.4263133891733,286.2423575932909,283.9319092034065
74.16,284.2876673251069,287.5380427782278,289.3322316655865,289.5230340638407,288.338043736958,286.1935081862179,283.90805715085173
75.53,284.20640683815776,287.4032039126597,289.1841452641432,289.39646047570903,288.2502524075865,286.14396015419027,283.8833802261769
76.91,284.1271329209542,287.27118093426645,289.0382370212479,289.2705606828644,288.1617393504852,286.0930861340601,283.8575867852499
78.28,284.050869024565,287.143722872463,288.8965179007494,289.14715893064704,288.07386211787093,286.04171403116214,283.83111650919324
79.65,283.97691490985665,287.0197055364465,288.75781986683353,289.02533402141495,287.9860482338765,285.9895642964771,283.8038490865303
81.03,283.90464541653074,286.89811421630753,288.6210671217028,288.9042084922433,287.8977218190107,285.9363303685055,283.7756386211324
82.4,283.83500490198344,286.78057310087166,288.48814944721596,288.78553024715836,287.8102220551041,285.882861672337,283.7469531021043
83.77,283.76736569195305,286.6660596618403,288.3579773197735,288.66840659666957,287.72296259545305,285.82884837461324,283.71764719020257
85.14,283.7016375304088,286.55445138430497,288.2304661918916,288.55282680683973,287.6359935100557,285.7743601256928,283.6877750456955
86.52,283.6372756339639,286.4448480396403,288.1046322284058,288.4379520033569,287.5487299753576,285.71906082268885,283.6571649569144
87.89,283.5751324593233,286.3387277070332,287.9822206365896,288.32543386656556,287.4624794940787,285.663814665219,283.6263104122726
89.27,283.51422443541946,286.23443563449894,287.86136829489993,288.2136155667677,287.37602272694795,285.6078750183839,283.5948090315982
90.64,283.45536301134706,286.13338424599044,287.7437543255529,288.1041027974476,287.29064890259195,285.5521085784742,283.56316270746856
92.01,283.3980340035545,286.03471517808026,287.62842515887405,287.9960644017375,287.2057630170783,285.4961634320438,283.5311875346701
93.39,283.34177185628187,285.93764460582975,287.5144968371252,287.88871182236227,287.1207815548966,285.4396793613132,283.49868783737867
94.76,283.2873320254722,285.84349475746495,287.40355640866085,287.7835844521162,287.0369640681379,285.38352179729105,283.4661735807637
96.13,283.23424521866895,285.75147410667256,287.29470911208585,287.6798823975377,286.95371819585284,285.3273256077806,283.4334469768672
97.51,283.18208481135,285.6608574361831,287.1871238581208,287.57684719822987,286.8704660320296,285.270721842443,283.40030205989365
98.88,283.13155602691535,285.572885442437,287.0823030497434,287.47595489916574,286.78843531791875,285.2145696668346,283.3672522979455
100.25,283.0822284630423,285.48682545346117,286.9794054825851,287.37643650550206,286.70703968903416,285.15849502378774,283.3340892153897
101.63,283.0337093864482,285.4020040867506,286.8776483523295,287.2775631298787,286.6257095111561,285.1021237948599,283.30059925814
103.0,282.98665879482525,285.31958806512375,286.7784559792557,287.18075025705116,286.54563917018316,285.0463048433599,283.26729564833136
104.38,282.94034845225445,285.2383140489721,286.6803313527777,287.0845669309846,286.4656739807217,284.99025338019027,283.2337187027934
105.75,282.8954106312973,285.15930311689357,286.5846499548279,286.99038969015197,286.38698545056224,284.93480955161954,283.2003797408635
107.12,282.8514691671205,285.08190626806606,286.4906497619931,286.8974994988174,286.3090027428643,284.87959228060663,283.1670586037227
108.5,282.8081788841273,285.0055242281383,286.3976196376741,286.80521505807917,286.23117435084464,284.82422530989174,283.1335342261999
109.87,282.7661337835796,284.9312146648632,286.3068663232676,286.71485666552275,286.15463689512796,284.76953348617775,283.1003129173492
111.25,282.72468798652477,284.85784521891566,286.21702459224116,286.62508802478663,286.0782806465956,284.7147394043638,283.0669290375412
112.62,282.6844119118211,284.7864342341412,286.1293580082151,286.53719324423633,286.00321868478363,284.66065646487306,283.0338843353518
113.99000000000001,282.6449733627346,284.7164020249369,286.04317305800873,286.4505007080842,285.9289004630319,284.6069042392172,283.0009532365791
115.37,282.60606600735605,284.6472111364959,285.9578209274958,286.3643741345201,285.85479625312246,284.55311059066577,282.9679123644628
116.74000000000001,282.56822754696503,284.57982501541454,285.87450416417335,286.2800453459308,285.7819837072993,284.5000703069489,282.93525514657574
118.11,282.531148306,284.51370004536227,285.79256603324507,286.1968698211752,285.7099259533359,284.44740615030594,282.9027551484035
119.49000000000001,282.4945419656733,284.44833111462805,285.7113913113701,286.1142369622549,285.6381074354512,284.39475071554904,282.8701895674989
120.86,282.45891630234246,284.3846310898579,285.6321255342564,286.03332852126624,285.56757041141066,284.34287881321586,282.83804206572347
122.23,282.42398179701235,284.3220889868664,285.55414594827283,285.95352604351444,285.4977924402543,284.2914180357762,282.80608679326303
123.61,282.3894701179147,284.26022906834515,285.47686845559514,285.8742436245738,285.42827266635715,284.2400070159203,282.7741026976856
124.98,282.35586157461995,284.1999174467781,285.4013851891335,285.7966150549015,285.3600181935671,284.18939959536607,282.7425625563914
126.36,282.32264634941055,284.1402441994933,285.3265670482873,285.7194918959998,285.2920316364913,284.13886494031277,282.71101451671063
127.73,282.29028764229946,284.0820461485196,285.2534723571856,285.64397704885465,285.2252968529824,284.0891425001042,282.67992360512267
129.1,282.258525179455,284.02486028560986,285.1815296097712,285.5694932629504,285.15931652025614,284.03987072781223,282.64906750698884
130.48,282.2271168659406,283.9682542720064,285.1102018200519,285.49549364994795,285.0936149537199,283.99070052491714,282.61823014900534
131.85,282.1965019139168,283.91302364108964,285.04049918411874,285.42303644631426,285.02914161505055,283.9423493810531,282.58786439103375
133.22,282.16643540243314,283.8587308892549,284.9718780948842,285.35156779281436,284.9654145808785,283.89446352613186,282.55775123900156
134.6,282.13668908244506,283.80496685925135,284.90382730326945,285.2805629453957,284.9019734151354,283.8467021886486,282.52767855923946
135.97,282.1076799547033,283.75248861486216,284.83731166301607,285.21103733204023,284.83973379999946,283.7997606195587,282.4980865559962
137.34,282.0791770754918,283.7008820742623,284.77181360478284,285.1424595322825,284.77822928913633,283.7532935133713,282.468760243955
138.72,282.0509648478864,283.6497594400131,284.7068459574452,285.0743260436283,284.7170146684764,283.7069689360511,282.43949196612556
140.09,282.02343964387296,283.5998418371967,284.64333077750615,285.0076112573622,284.6569725475193,283.6614598068116,282.41070894896757
141.47,281.9961875005625,283.55038128145407,284.58032172506597,284.941328247306,284.59722156669557,283.6161028755044,282.38199368655165
142.84,281.9695918175953,283.50207619288574,284.5187136011381,284.87642496028616,284.5386226886507,283.57155618015116,282.3537646329887
144.21,281.9434423638352,283.4545475702602,284.45802860464124,284.81240536605725,284.48073515549504,283.5274895986422,282.3258146342659
145.59,281.91754237873494,283.4074397418467,284.3978164481162,284.7487994649613,284.4231388413464,283.48358668633966,282.2979443717189
146.96,281.8922569106756,283.3614188689545,284.338932921366,284.6865169472547,284.36666295998,283.4404833183756,282.27055907899825
148.34,281.86720679421666,283.3157969550104,284.2805018685774,284.62463650404976,284.3104773317599,283.3975495251777,282.2432600112444
149.71,281.84274549487816,283.2712197163466,284.22335418259894,284.56404316814974,284.2553904521516,283.3554065230514,282.2164435687977
151.08,281.81868080335215,283.22733905345217,284.1670478751853,284.50427390819635,284.20098677963955,283.3137401696433,282.1899114049976
152.46,281.7948324385283,283.18382773058926,284.111165985336,284.4448899667681,284.1468706510672,283.27225000553864,282.1634732506491
153.83,281.771537423631,283.14130233065487,284.0565037016169,284.38674069945756,284.09382025400834,283.23153555279305,282.1375123209157
155.21,281.74844729444663,283.09912833943434,284.00224858294837,284.3289659853839,284.04105488279083,283.191000413033,282.11164946936907
156.58,281.72588866205297,283.0579038242277,283.94917299037303,284.272392181708,283.98933299302985,283.1512298381905,282.0862591734097
157.95000000000002,281.70368515025257,283.0173081353966,283.89686736806397,284.21658702607897,283.9382635225961,283.1119259869336,282.06115245938423
159.32,281.68182930001245,282.9773289881521,283.8453185425693,284.1615399385892,283.88784013224773,283.07308629281147,282.0363286366479
160.70000000000002,281.66015808217276,282.93766925335683,283.79414552952136,284.1068468678903,283.83769538803466,283.0344295830444,282.01160875650015
162.07,281.63897854546786,282.8988920737741,283.74407735342714,284.0532901262979,283.78854956256487,282.9965132031287,281.9873500805297
163.45000000000002,281.61797462967706,282.8604199526009,283.6943706617616,284.0000775718168,283.73967864099706,282.95878056372123,281.9631973228838
164.82,281.5974441491388,282.8227994854777,283.6457338230767,283.9479703545661,283.6917843786564,282.92177535069686,281.9394992636237
166.19,281.5772273700338,282.7857391842101,283.59779236872106,283.8965703923333,283.64450386132586,282.8852192190248,281.9160784938422
167.57,281.5571739309046,282.74896424652223,283.5501924436674,283.84550043295815,283.59749211461474,282.84884685134773,281.89276560604833
168.94,281.53756845598906,282.71299756680105,283.5036126972989,283.79549099864545,283.55142391190526,282.8131818972676,281.86989688236855
170.32,281.51811885045504,282.67730418756184,283.45736207464745,283.7458024472487,283.50562010291395,282.77770009054956,281.84713677787056
171.69,281.49910133685364,282.642391866867,283.4121001665545,283.6971455527114,283.4607379563368,282.7429120045585,281.8248133850161
173.06,281.4803684448779,282.6079908065179,283.36747901217234,283.6491486270767,283.4164368929132,282.7085552223829,281.8027589512432
174.44,281.4617811874966,282.57384640775564,283.3231696222052,283.6014594184848,283.37239334235517,282.6743798771792,281.78081351838415
175.81,281.4436037597723,282.5404447086059,283.27980413606014,283.5547601168997,283.32923909801787,282.6408774121442,281.7592931552779
177.19,281.4255657073117,282.5072894255623,283.2367395724123,283.5083600634309,283.2863376082084,282.6075547988305,281.7378816348375
178.56,281.407923548031,282.47485270203896,283.194590448269,283.4629230162285,283.24430415723384,282.5748910248478,281.71688717265357
179.93,281.3905408537045,282.4428844121075,283.15303313340286,283.41810191132674,283.2028194118314,282.54263913036283,281.6961515221143
181.31,281.3732889137817,282.4111483329972,283.11176150247036,283.373567823173,283.1615801178511,282.51056416871006,281.67552396152166
182.68,281.35641323495116,282.38009663913914,283.0713646660519,283.329957829523,283.12117755668015,282.4791269427669,281.6553012093455
184.05,281.3397835013388,282.3494901503456,283.0315326446552,283.2869388359496,283.0813046046595,282.44808949038344,281.6353306023329
185.43,281.3232767047343,282.31910288869733,282.99197215655994,283.2441951513625,283.0416696662626,282.41722552303423,281.6154668200143
186.8,281.30712789102074,282.2893680158886,282.9532480391177,283.2023382518336,283.0028408808566,282.3869782334896,281.5959954145373
188.18,281.29109719264545,282.2598443098946,282.9147865575015,283.1607491253242,282.96424510475117,282.35690189265426,281.5766297551031
189.55,281.275412960268,282.230952743213,282.87713694668355,283.1200227375772,282.9264355002395,282.32742825904086,281.55764812798776
190.92000000000002,281.25995432422826,282.20247112673957,282.84001056811275,283.07984803792067,282.88912441569954,282.29833386921837,281.538906930861
192.3,281.24460710738305,282.17418941286974,282.8031342401364,283.0399302205954,282.85203882744054,282.2694063516646,281.52026957831293
193.67000000000002,281.22959003388485,282.14651102157256,282.767034677315,283.00084035028004,282.81571014780764,282.2410608117697,281.50200375443666
195.04,281.21478749601306,282.11922326631446,282.7314352520098,282.9622798845741,282.77986187566006,282.21308216160014,281.4839711221435
196.42000000000002,281.2000902452131,282.09212502245623,282.6960741055426,282.92396586943335,282.7442316118066,282.1852660523583,281.46604015734584
197.79,281.18570783562126,282.06560296194704,282.66145640921155,282.8864464326843,282.70932982513403,282.15801150413944,281.44846828287376
