time (s),temp0,temp1,temp2,temp3,temp4,temp5,temp6
0.0,339.21591928961635,320.3952702860961,308.7556140423392,300.47187832820106,295.0750990279758,291.03466440710656,289.4
1.37,330.9540785192531,315.93289535813665,305.54844617580005,298.39762868996667,293.49961404228344,290.4222086940873,289.44364852585335
2.75,327.0835955073184,316.29259235693337,305.77420636644894,298.5606769897974,293.62618887826784,290.5845395463793,289.3873793650163
4.12,322.4155616287823,316.4656683835215,306.07098970099554,298.766412812626,293.79505562548934,290.7471818051522,289.1451479857558
5.49,318.07992293819785,316.2280383694445,306.361159223905,298.9780074748401,293.96989468468513,290.86578132708274,288.8298680293925
6.87,314.3320576470137,315.6195053974253,306.61150962821637,299.19547481486285,294.1460929542499,290.93781822128415,288.50998163656766
8.24,311.2053608753194,314.76076985348277,306.7888933493881,299.4123619068736,294.31683753617676,290.97150123715375,288.21910887259423
9.61,308.57754156723695,313.7517337914703,306.87928223182365,299.6241600030645,294.48030464547105,290.97897041429735,287.96323044419836
10.99,306.3385581207247,312.6608444012257,306.87935049346515,299.8248418452786,294.63562811729213,290.96998264012916,287.74074948320253
12.36,304.44042105944766,311.5555548577719,306.7949322352142,300.0043334073873,294.7793626495171,290.95207975923995,287.5517133547379
13.73,302.8023018913145,310.4605933617925,306.6366938366312,300.1584193412175,294.9118589850483,290.930323832285,287.39045438800935
15.11,301.3653219058771,309.3878390732104,306.41470286730214,300.2840062282149,295.0332931644451,290.9078339691069,287.25223276651
16.48,300.11199741326305,308.36388412376664,306.1439060105054,300.37718083598145,295.1413195211427,290.8868891793862,287.13562166867735
17.85,299.00152554514796,307.38633215219386,305.8334795808006,300.43841588912494,295.23636370124126,290.8683106332091,287.0365865977077
19.23,298.0037088906218,306.4506545402701,305.4900057447617,300.4684385291224,295.31859038607183,290.8523166401806,286.95203372491414
20.6,297.1143378295857,305.5703644832504,305.12621970069637,300.4682676183005,295.3865716401284,290.8390193193381,286.88100185278523
21.97,296.31086910427763,304.73718792395476,304.7460990372257,300.4402077797346,295.44087923673084,290.8278930260146,286.82094705541886
23.35,295.57612096862886,303.94349661552656,304.351948484183,300.3860495018625,295.48184771708486,290.8183111787546,286.76989054569367
24.72,294.91076358248546,303.1983684264229,303.95369486535435,300.30898964555723,295.50911911993313,290.80976996680596,286.7271230394034
26.09,294.30101267722415,302.49332498294916,303.5518713405134,300.2111303626897,295.52340134509444,290.80153797771754,286.69096883462436
27.47,293.73608758695224,301.8210416782651,303.1462107837996,300.0938908033028,295.5251274145665,290.79291488098323,286.6600906439879
28.84,293.21837818731325,301.18872714207373,302.7447150426782,299.9611901085517,295.5148202400749,290.7834339816357,286.63392396425763
30.21,292.73873758694833,300.58896924009605,302.34609967699026,299.8142970230358,295.49313921340377,290.77250850779063,286.61133187315886
31.59,292.2898590311614,300.0154481064444,301.9487912329372,299.65389643066726,295.4604487786445,290.75957938921425,286.59138391351996
32.96,291.87464698381314,299.4743430144027,301.55954420540337,299.4840414702252,295.4178858892376,290.74444513467535,286.5736622187605
34.33,291.4866389382105,298.95942224554335,301.17621346292407,299.3051642279973,295.3659174887267,290.7267023088866,286.5573942077637
35.71,291.12058122198715,298.46537049271996,300.79663115846523,299.1172721836891,295.3047304986231,290.705937475228,286.5419278273042
37.08,290.7794225820543,297.997659710073,300.4267035966429,298.9243413363095,295.2358628075653,290.68225859155,286.5270128515484
38.45,290.4583714366216,297.55107867171404,300.06393377934626,298.7261447166743,295.1595294362838,290.6553884199826,286.5121276363931
39.83,290.15347391940855,297.12116030546053,299.7059326059282,298.5221744620634,295.07570221633677,290.62500526440266,286.49681117959636
41.2,289.86754240896107,296.71282197959084,299.3579870464188,298.3162620587128,294.98617484059486,290.5915019934655,286.48098916100906
42.57,289.5968870164568,296.32167848272957,299.01751000993073,298.10771169521433,294.89090997750066,290.5546598335069,286.4643061326518
43.95,289.3384229494277,295.9439457775085,298.6820814434173,297.89565731844186,294.78967159008135,290.5141939600111,286.4464256972543
45.32,289.09476440285175,295.58407761077103,298.35650573570314,297.68376991043175,294.6844145790271,290.47073786335517,286.4274425619292
46.69,288.8629818005508,295.23834574287184,298.038237157689,297.47104011229254,294.574878113685,290.4240790616532,286.4071026563473
48.07,288.64059728585164,294.9035101129123,297.7249190525441,297.25636791674424,294.4606461323678,290.37392965529284,286.38514349258975
49.44,288.43001475358125,294.5836255390197,297.4209606770126,297.0432651049216,294.34377273705087,290.3211182568481,286.3618122007036
50.81,288.2288490304728,294.2754863835418,297.1239207693357,296.8305238631505,294.22381245563633,290.2654054360375,286.3369081791032
52.19,288.0350613889154,293.97628706847803,296.8315501422056,296.6169009531092,294.1002030991209,290.2064758910637,286.31020580789016
53.56,287.8508537635118,293.6897345217278,296.54792313108265,296.4057554797611,293.97505614024595,290.1453126002921,286.2820836610544
54.94,287.6729803771818,293.41105716111696,296.26873002788045,296.19423468044346,293.84684418110476,290.0811575405406,286.25213828464877
56.31,287.5035170906553,293.1437537026585,295.9978469872528,295.9856000084365,293.7177001268899,290.01507701222897,286.2208238169329
57.68,287.3406925450898,292.8852712824341,295.7330575588489,295.77848136664744,293.58695504978687,289.94675233307026,286.1879601003052
59.050000000000004,287.184090264681,292.635146948595,295.47419206126403,295.5730216227095,293.4548427333103,289.8763209729749,286.1535872679064
60.43,287.03224874720223,292.3912102650524,295.2192554349733,295.367862362326,293.3206028597553,289.80338429264566,286.11748614145915
61.800000000000004,286.88701620712084,292.15659303360945,294.9717753288039,295.16608012998745,293.1863818212623,289.72913534324664,286.08023396302093
63.17,286.7469494708885,291.92912530024785,294.72972036628767,294.96626760516796,293.05139518378047,289.6531855274229,286.0416329196279
64.55,286.61078227621994,291.7068715402772,294.49122126490323,294.7670602735068,292.91482173397094,289.5750936255396,286.00144948575723
65.92,286.4802127677803,291.4927247891312,294.259577460493,294.5714041355217,292.77879882235857,289.496118973092,285.9603313416721
67.29,286.35398400482484,291.28474518569,294.0328895729041,294.3778954436889,292.6424836259329,289.4158244104314,285.9180587096513
68.67,286.23098515027715,291.0811929845335,293.8094074552072,294.18518324952026,292.5050133168809,289.33373019459896,285.8743792004596
70.04,286.11278063665054,290.8847490090629,293.5922255430778,293.9960894686251,292.36850410385176,289.251141911312,285.8299947091974
71.42,285.9974404184182,290.6922904736802,293.3780319449177,293.8078751790604,292.2310783915262,289.1669664951486,285.7843267943415
72.79,285.88644794304713,290.50636952218287,293.16979540528297,293.62328282501835,292.09483294661993,289.0825310044488,285.7381056666273
74.16,285.77878016755113,290.3253507707632,292.96581720971267,293.4409491877678,291.9588676405631,288.9973309546214,285.6910708630353
75.53,285.674274894128,290.1490258232453,292.765971509968,293.26087808097236,291.8232709226181,288.9114639972509,285.6432882944689
76.91,285.57205064386636,289.9759602900811,292.5687218005095,293.0817793806742,291.6871394894016,288.8243905508597,285.5944663167034
78.28,285.4734466794543,289.80847631504054,292.37680882759315,292.906244333159,291.55252141745797,288.7374619860913,285.54537570344286
79.66,285.37688920052705,289.6439517020829,292.1873161021211,292.731702603782,291.41752112750635,288.64949521340355,285.4953617781123
81.03,285.28365303995565,289.48460525251437,292.0028802751707,292.5606732129283,291.28415838768154,288.56184598223876,285.4452087918742
82.4,285.19291264281156,289.329074378952,291.82200957277126,292.39187020631437,291.1515102583849,288.4739544668474,285.39461329045884
83.78,285.1039227133567,289.1761167177436,291.6433204144548,292.22407061840687,291.01866972789503,288.3852496870861,285.3432567237704
85.15,285.01787005323484,289.0278091145741,291.4693045115077,292.05968936820597,290.88761043640835,288.29708599732396,285.29193642420853
86.52,284.9340050599214,288.8828982950172,291.2985607194448,291.8974840789698,290.7574107964148,288.20888572853283,285.24033210794397
87.89,284.8522372106857,288.7412594899896,291.1309987436118,291.7374350745209,290.62811077475476,288.1207098300171,285.1884920953096
89.27,284.7719062517219,288.60177486577044,290.96534232703726,291.57837674087375,290.4988132527589,288.03197315698304,285.13608215141744
90.64,284.6940954974223,288.4663530202704,290.8039080869117,291.42259247633416,290.3714252278776,287.9440161305855,285.0839060605078
92.02,284.6175919368716,288.33290875589296,290.64425747192996,291.2677852950103,290.24411724961016,287.85560631040534,285.0312445959683
93.39,284.5434322148639,288.20327422700547,290.4886262241312,291.11617562862835,290.11876133643557,287.7680729597904,284.9789009031607
94.76,284.4709875386642,288.07637567329874,290.33577218263144,290.96661059058016,289.99445535911093,287.68081936115897,284.9265313346947
96.14,284.3996829905047,287.95122413374673,290.1845372290749,290.8179967222289,289.87032531529474,287.59325407555895,284.8737894468421
97.51,284.33049092245403,287.8295457920673,290.03704349597353,290.67246355866513,289.74818946603943,287.5066854854123,284.8214734883357
98.89,284.26234283075297,287.7094800910237,289.8910700234004,290.5278618019906,289.62628202355404,287.4198868623561,284.76885199906627
100.26,284.19617153347815,287.5926876376901,289.74866771563904,290.3862625156318,289.5063847427331,287.33415033710713,284.7167177282239
101.63,284.13142596901065,287.47821415873807,289.6087075801372,290.24658616448266,289.38762314685147,287.24887703636006,284.66471721268505
103.01,284.06759942936367,287.36517673739223,289.4701343329836,290.10780944992945,289.26915416921264,287.16347934331634,284.6124991724607
104.38,284.00556999885373,287.2551446235919,289.3348983973974,289.97191897734484,289.15270434118855,287.07922226091114,284.5608453662454
105.75,283.9448258479207,287.1472251310631,289.2019315200617,289.8378777950915,289.037418976663,286.99551027689273,284.5094000347486
107.13,283.8848949311303,287.0405903308955,289.0702338148082,289.7047031571595,288.9224759892134,286.9117618547403,284.4578119857767
108.5,283.8266053968503,286.9367255048079,288.9416620013324,289.57430081125784,288.80954645493,286.8292122352004,284.40684929322595
109.88,283.76906743276686,286.83405629298966,288.8142885031343,289.4447426866881,288.6969857846188,286.7466762435007,284.3557871913536
111.25,283.71307823461814,286.73401561348487,288.68991092293305,289.31788247579476,288.58642810060337,286.66536812371925,284.30538341162224
112.62,283.65818188314785,286.63580012838406,288.56755216573714,289.1927512875864,288.47705514362815,286.58470393376894,284.25528326633054
114.0,283.60395604065565,286.5386621269782,288.4462957901347,289.06843103108054,288.3680822882533,286.50411706220467,284.20513973231186
115.37,283.551154712966,286.44396103456614,288.32785551420943,288.94670015562,288.2610886207852,286.424789025879,284.1556936069817
116.74000000000001,283.4993508669377,286.3509404387634,288.21130360991344,288.82662868705967,288.1552790577357,286.3461456215208,284.1065932568205
118.12,283.4481480028253,286.2588949868139,288.0957689887591,288.70733544755274,288.0498923328189,286.2676314009341,284.0574961149138
119.49000000000001,283.39826035605563,286.16911597035823,287.9828866240824,288.5905267970108,287.94645312137663,286.1903940594367,284.00912469593317
120.86,283.3492869200056,286.0808897235746,287.87177468008406,288.4753102217209,287.8441900922871,286.11387073393666,283.961131868393
122.24000000000001,283.3008545743212,285.9935496255019,287.7616043374667,288.3608400515621,287.742365665353,286.03751837930685,283.91318067992296
123.61,283.2536408128911,285.9083236154314,287.65393649085723,288.24875356323736,287.6424509432451,285.9624501817032,283.8659743735037
124.99000000000001,283.20693274964077,285.82393075937705,287.5471643524067,288.13739281542513,287.5429820977722,285.88757600048757,283.818831380549
126.36,283.1613848712058,285.7415591209902,287.44280176042264,288.02835057771387,287.4453950247698,285.81398577378013,283.7724416805723
127.73,283.1166342736215,285.66055844495884,287.3400366153116,287.9207935922489,287.3489585820199,285.7411381988618,283.7264681751809
129.11,283.07234224591724,285.58031983588006,287.238104534908,287.8139323266848,287.25297484424146,285.66851290777,283.68058526172314
130.48,283.0291308571768,285.50197489892946,287.13845216321937,287.70929517708163,287.15882788907106,285.59716489926535,283.63546263884064
131.86,282.98635003314075,285.4243494765564,287.03959470286327,287.6053343579157,287.0651358768769,285.52605438232405,283.5904457516242
133.23,282.94460145990865,285.3485395094362,286.9429360086771,287.5035367827917,286.97324896493416,285.4562130656446,283.54619058269355
134.6,282.9035549442746,285.2739499982606,286.8477264010595,287.40312456466296,286.88247615271706,285.38712342844383,283.5023723603386
135.98,282.8629015003272,285.20002262631573,286.753259389501,287.30336061208476,286.7921587429768,285.3182893647523,283.4586785885628
137.35,282.8232139831279,285.12780266849603,286.6608775887519,287.2056718275701,286.70359713763514,285.2507078874497,283.41574457032056
138.72,282.78417969473463,285.05672499969796,286.56986571560776,287.1093117484814,286.6161241106722,285.1838763835736,283.37325368386286
140.1,282.7455056217509,284.98625875956003,286.47954926728596,287.0135730425303,286.52910406459205,285.11731370958915,283.33090184936236
141.47,282.7077376518203,284.91740159937234,286.39121281748,286.9198250641739,286.4437889790976,285.05198256710923,283.2893036711959
142.85,282.6703102033782,284.8491252545187,286.3035428412968,286.82668114944676,286.3589239362002,284.9869268150206,283.2478523236152
144.22,282.6337521104236,284.78239714459,286.21778683171294,286.73547355823416,286.2757293604696,284.92308653565567,283.2071486493476
145.59,282.5977769094091,284.7166973689216,286.13328244361156,286.6455054093953,286.1935768461417,284.8599845123924,283.1668904275001
146.97,282.5621156385363,284.65153678199323,286.04940452336353,286.55611632504844,286.11186834819637,284.79716479560295,283.12678816312115
148.34,282.5272728806233,284.58783965997014,285.9673473362862,286.4685848882712,286.03177818642496,284.73553408646535,283.0874222425328
149.72,282.49272802760714,284.5246564612467,285.8858919414941,286.38161643509767,285.9521271133307,284.6741886188488,283.0482169011897
151.09,282.45897027937207,284.46288400397157,285.8061985429604,286.29645494472635,285.8740594647287,284.6140131906084,283.0097390176926
152.46,282.4257363198106,284.4020427202448,285.7276528802513,286.21244979094945,285.79698434507947,284.5545561426978,282.9717013455307
153.84,282.39277851098643,284.3416808204333,285.6496747446558,286.1289844028907,285.7203398378927,284.4953866076755,282.9338292999097
155.21,282.360564115472,284.28265584511786,285.5733753738695,286.04725268102953,285.6452265478211,284.43735718887115,282.8966697970266
156.58,282.32884244647204,284.2245104015652,285.49816728779257,285.96663023570426,285.571075352013,284.3800314421999,282.85994467877754
157.96,282.2973775411799,284.1668132993202,285.423495356774,285.8865253459565,285.49734524725693,284.32299333536076,282.82338832116545
159.33,282.26661595341596,284.11038487465856,285.35042418225726,285.80808386969704,285.42509453453306,284.26706407222156,282.7875280606752
160.71,282.2360993431001,284.0543857852474,285.277869661083,285.7301456623021,285.3532581031218,284.2114215366593,282.7518377526895
162.08,282.20626107428455,283.99961260916723,285.20686648866126,285.65382560491395,285.282866808037,284.1568664383815,282.71683190172786
163.45000000000002,282.1768697340224,283.9456420228955,285.13686878847716,285.5785406989514,285.21338652824943,284.10298728476783,282.68224747430935
164.83,282.14770723220204,283.8920745656314,285.06736045508796,285.5037384301776,285.14430980752456,284.0493922505083,282.64783364907595
166.20000000000002,282.1191880523787,283.8396727254305,284.9993331096169,285.43048884356006,285.0766275559788,283.9968520603909,282.614086089134
167.57,282.0910913961322,283.7880320561454,284.9322641587293,285.3582324209211,285.00982583149,283.94496984632093,282.58075073139145
168.95000000000002,282.06320904414474,283.73677071932667,284.86565936859034,285.2864388910958,284.9434164826138,283.8933679132283,282.5475854823054
170.32,282.0359375823745,283.6866188024807,284.8004692505395,285.21613527902656,284.878351865464,283.84278788261344,282.5150676488736
171.69,282.00906619935574,283.63718969295434,284.73619335192984,285.1467845919096,284.81413759552834,283.79284720677674,282.4829520152894
173.07,281.9823959806005,283.58811822616383,284.672358257317,285.0778778981786,284.7503042103563,283.74318199238456,282.4510050654842
174.44,281.95630652397466,283.54010366227106,284.60987521830475,285.01040094337765,284.68776687898736,283.6945056522748,282.4196862569161
175.82,281.9304101468888,283.492433306349,284.5478183222929,284.94335581723004,284.6256026552286,283.6461011157141,282.3885347525565
177.19,281.9050755815826,283.44578666548784,284.4870735934369,284.87770164513415,284.5647026337202,283.5986634676467,282.35799838494967
178.56,281.8801074227222,283.3998047697657,284.42717516337325,284.81293697857467,284.5046036523458,283.5518332844927,282.3278463376296
179.94,281.85532114208195,283.35414834750173,284.3676821720503,284.74858656154623,284.44486604610825,283.5052688980097,282.297859000779
181.31,281.83106985856864,283.3094684749474,284.30944424077666,284.685570983782,284.38634593857563,283.4596386845722,282.2684672309429
182.69,281.80699352505763,283.26510241416975,284.2515987019476,284.622958337067,284.3281793605455,283.4142699742987,282.2392381468646
184.06,281.783435259558,283.22168300271966,284.1949717691118,284.5616443591077,284.27119981129425,283.36981381471554,282.2105915701077
185.43,281.76021368871125,283.1788765803934,284.13912950428676,284.50116077501167,284.2149736248767,283.32593288443405,282.18231055655065
186.81,281.73715741990077,283.1363676307814,284.0836611410454,284.4410637607931,284.1590892491142,283.28230669878246,282.1541888419754
188.18,281.71459518137294,283.0947627126238,284.02935909499496,284.38221307642345,284.10434733864076,283.2395610839043,282.1266301603464
189.55,281.6923534304764,283.05374234176014,283.975807415305,284.3241592721611,284.050331101971,283.1973714599185,282.0994256056423
190.93,281.6702681177739,283.01300432572094,283.92261230209505,284.2664763618492,283.99664505596917,283.1554295319386,282.0723766273534
192.3,281.6486542533746,282.97313013333587,283.8705338277979,284.20998957822997,283.94405823957834,283.11433678196323,282.04587140392607
193.68,281.62719130128204,282.93352881723064,283.81880093806893,284.15386359092133,283.89179393904135,283.0734869099613,282.01951912757414
195.05,281.6061854683116,282.89476572706167,283.7681528901545,284.09890136433677,283.8406007567333,283.0334656297008,281.99369788789613
196.42000000000002,281.5854753985952,282.8565435092719,283.7182019498598,284.04468316171375,283.7900887139869,282.99396873358705,281.96821168395127
197.8,281.56490848765606,282.818580796374,283.6685809515365,283.99081115285856,283.7398878424922,282.9547073882391,281.94287432482
