time (s),temp0,temp1,temp2,temp3,temp4,temp5,temp6
0.0,312.47064900352024,305.2199137509386,299.7179491736761,294.2375145528069,291.1304346208692,288.73481472296277,287.4
1.37,309.2216802802767,303.0953682541639,297.5576755085609,293.0550694473622,290.19745718758037,288.2202490072117,287.4384796139785
2.75,307.2908003656756,303.13387879931116,297.61051666964534,293.18050856570954,290.2566871087219,288.3082796074775,287.4294863717215
4.12,304.9129954858542,303.07618105805903,297.706744361675,293.32192357908013,290.3417322792568,288.400575033787,287.30441906917446
5.49,302.68561868190915,302.83049996198764,297.80051242760555,293.4541690148193,290.4344791653616,288.4680824435395,287.1313121241866
6.87,300.74721550790935,302.4133477908112,297.87413195041967,293.5793523704922,290.5310152058677,288.50882202095306,286.95227439054105
8.24,299.1198954975387,301.88316192543107,297.912098074248,293.6963408145253,290.62587051064463,288.52752478585495,286.7880410940393
9.61,297.7439084602269,301.28659684641065,297.90731289336895,293.8048173959622,290.7167756038977,288.5311978572612,286.6428672624796
10.99,296.56460379326967,300.6556547776957,297.8579236106434,293.9030428321196,290.8024845378034,288.5254164915344,286.51626131202283
12.36,295.55916534926155,300.0241596218039,297.7676488673888,293.9869669536879,290.8806956750037,288.51444761317464,286.40846292933145
13.73,294.6868060769949,299.4029992079514,297.64150145322265,294.0551859223226,290.9514545173927,288.50110222922814,286.3163485653796
15.11,293.9176771951367,298.79698724923264,297.4841999258631,294.1065970865977,291.0148298656478,288.4870754736782,286.23725696945974
16.48,293.24365082099166,298.2199231486053,297.30388992572404,294.13982863795906,291.06967126935075,288.47362276828284,286.17038839463396
17.85,292.6437950316591,297.6696799355391,297.1048115650834,294.1553776738853,291.1163264722868,288.4611626471814,286.11343276199216
19.23,292.1025461516275,297.14324012277973,296.88993206402034,294.1537577416609,291.1549851740209,288.4497799791267,286.0646053560841
20.6,291.6182414354374,296.6479196046388,296.66622522067803,294.13595094077783,291.18510655093047,288.4395678456849,286.02334964222024
21.97,291.17912591454024,296.17889650859485,296.4353421316141,294.10318935818765,291.2070985439824,288.43022260718277,285.9881957610647
23.35,290.7761979072383,295.7317836965706,296.19812510795623,294.0563901720315,291.22120561312755,288.42138324150443,285.95799535865035
24.72,290.4101554669049,295.31165518568866,295.9600958870001,293.9975831276615,291.2274602197121,288.4128408146778,285.93235276558056
26.09,290.0736999828064,294.9137271454543,295.72120313474,293.9278047506348,291.2262827422666,288.4041885874266,285.910302892374
27.47,289.76109713728005,294.5338735069336,295.48102234732,293.8477168431189,291.21791888335974,288.39503110929553,285.89107269060656
28.84,289.4738566574461,294.1761922433271,295.2440722773043,293.759685947771,291.2028540523927,288.3851995054214,285.87436933680385
30.21,289.2070691372508,293.8365273744506,295.0094137049871,293.6642755933376,291.18143517698815,288.3743637673804,285.85954185421434
31.59,288.95679592267146,293.511331410679,294.775988100022,293.5617384226983,291.1538342950125,288.3622024129095,285.84605449783174
32.96,288.7247688967189,293.2041457202739,294.5476540199251,293.45448858678634,291.12084973148706,288.34870014627415,285.8337119058339
34.33,288.50747857688685,292.91147439654765,294.32306179048413,293.3426363641942,291.08269543457556,288.33362001145144,285.8220719787659
35.71,288.30206039939407,292.6303294236405,294.10087366571486,293.2260698896871,291.03942589225153,288.31671387284035,285.8107581567453
37.08,288.11024023782113,292.3638601368523,293.8844907733936,293.1071473917985,290.9920431999129,288.29813859693655,285.7996777978489
38.45,287.92938981200007,292.10913473703715,293.67240607623216,292.98562823452266,290.94060899949693,288.2777187398377,285.7885293510223
39.83,287.757332091106,291.86363389263255,293.46318794103854,292.8611275078802,290.8850498376478,288.2552503000483,285.77704288780365
41.2,287.5957011626548,291.6301954349433,293.2598974763326,292.73591504765017,290.8264972778448,288.23104638129325,285.7652284840547
42.57,287.44245557765703,291.4063431528067,293.0609998979628,292.6095033745051,290.7648681429767,288.20495738908085,285.7528754800835
43.95,287.29588252468074,291.18993475017106,292.86506366961305,292.48132004833207,290.69997078544196,288.17679476164653,285.73978183900255
45.32,287.1574967526877,290.9835459292476,292.67488106551843,292.35353944564514,290.633017464737,288.14700248568954,285.7260536401431
46.69,287.02566536887133,290.78506322419224,292.4889540669403,292.22551091298453,290.56380018084343,288.1154299285462,285.71153426008055
48.07,286.8990025593904,290.5926451076281,292.3058972980971,292.0965412548961,290.4920274457109,288.081883510694,285.6960608758626
49.44,286.77890032946317,290.4086409422915,292.12828050485194,291.9687108383436,290.4189599216735,288.04691263913395,285.67982464105324
50.81,286.6640205779524,290.23122652972313,291.95467280621716,291.84126743023063,290.34428825675786,288.0103488887327,285.66269640245474
52.19,286.5532158728112,290.0588012356693,291.7837559508692,291.7134455593785,290.2676412923694,287.97198151718214,285.644532107076
53.56,286.44776182445,289.89351659997584,291.61790958797206,291.5872355648518,290.19030607201205,287.9324427067789,285.625595362811
54.93,286.34653941163526,289.7337809543751,291.45578240542477,291.46182711931914,290.11189429537365,287.8915375639946,285.60576628390737
56.31,286.2485800188292,289.5781883701244,291.2961310756883,291.3364164162723,290.03197386793636,287.84903237362465,285.58490581131366
57.68,286.1550527112036,289.4287163386303,291.1411693933756,291.2129082539834,289.9518426465051,287.8056228234088,285.5633373708931
59.050000000000004,286.065005410867,289.2839621089798,290.9896286482485,291.09046419283766,289.8710528926018,287.76108446100216,285.54093867074636
60.43,285.97760694723445,289.14267888101864,290.84034137980495,290.9682653358417,289.78912766064815,287.7151590530334,285.5175670236938
61.800000000000004,285.8939304498232,289.00669032348634,290.69537459713,290.8481352995526,289.7073642396402,287.66858967655924,285.4935939261171
63.17,285.8131538495916,288.8747489353163,290.55354039357377,290.7292278593093,289.62527164434755,287.62112276528853,285.4688878600419
64.55,285.7345538874708,288.74573948370863,290.41374464257615,290.6107246763972,289.54234131575197,287.5724766571157,285.4432976753552
65.92,285.65911795334864,288.6213491785393,290.2779231323468,290.49437225507035,289.45986143370027,287.52342843721163,285.41723247574873
67.29,285.5861271821827,288.5004595617045,290.1449646011384,290.3793301509279,289.37731084409535,287.47369792858035,285.3905481366338
68.67,285.51494464195804,288.38206542249395,290.01384407676903,290.2647909321777,289.29416000814984,287.42298261478675,285.36308285999354
70.04,285.4464813058913,288.267732485707,289.88637916043035,290.1524277581263,289.21168147582546,287.3720825202919,285.33527427961667
71.41,285.3801016446645,288.1564507292626,289.76153006146706,290.0414148463273,289.1293343227465,287.3206944241451,285.30696460633476
72.79,285.31523894901056,288.0473079450143,289.63833613047547,289.9309623587854,289.0465764506784,287.26849825137776,285.27798097178544
74.16,285.2527360929584,287.9417613204733,289.5185078887421,289.82267360299153,288.96465976131935,287.21630783686396,285.24878179855654
75.53,285.19202587639705,287.83889289045374,289.40107155773364,289.7157431182723,288.8830317519913,287.1638009055228,285.2191960601757
76.91,285.13259957301904,287.73786985756163,289.2851258634581,289.6094028339003,288.80114437395025,287.1106433558315,285.189040499742
78.28,285.075239284186,287.64005209170006,289.17228382768747,289.5051894580121,288.72022501999606,287.0576553292591,285.1587878043393
79.65,285.0194346098938,287.5446005245465,289.06163232829977,289.40232130695944,288.6397160257127,287.0044995142229,285.12825502069876
81.03,284.964725346888,287.4507507972045,288.9523246850525,289.30005453510677,288.5590685479393,286.95083125605817,285.09724982076443
82.4,284.9118392356118,287.3597752038012,288.8458847558511,289.19986229285774,288.47948252599576,286.8974708608472,285.0662537062335
83.77,284.86031367987687,287.27090288812593,288.74145501930326,289.1009886284417,288.4004001387614,286.84406979457106,285.0350735736249
85.15,284.80972957529,287.18342897978135,288.6382389114291,289.0027152150529,288.32127575119875,286.79027609586944,285.0035096552186
86.52,284.7607658957641,287.0985466735979,288.537678427004,288.9064545007408,288.2432796424908,286.7369052354349,284.9720477486
87.89,284.71300072825585,287.0155445640057,288.4389669784407,288.8114772059636,288.1658577233683,286.68360094294354,284.94048656402265
89.27,284.6660501583913,286.93376989679314,288.3413540027698,288.71709103267216,288.0884706572998,286.63000688329726,284.90862062747385
90.64,284.62054927033535,286.8543441597381,288.246206060427,288.6246504156848,288.0122574577648,286.5769296497054,284.8769363115822
92.02,284.5757905644895,286.77604680011603,288.1520873416516,288.532791869539,287.9361213846904,286.52362268916625,284.84499461129906
93.39,284.5323822313178,286.6999550911009,288.0603172624754,288.4428325283705,287.86117993651754,286.47088482307174,284.8132805527279
94.76,284.48995803974145,286.625441236361,287.97016491868504,288.3540879373018,287.7868915810582,286.4183535829644,284.78158353638037
96.14,284.44818260289173,286.5519262534638,287.8809483168308,288.2659089982529,287.7127324664576,286.3656709148635,284.7496923038753
97.51,284.4076270081199,286.48042603345743,287.7939205635422,288.1795589896408,287.6397871995804,286.3136217440421,284.71808770930033
98.89,284.36766631519794,286.4098491127295,287.7077723718786,288.09376242617054,287.56699958310816,286.2614663574073,284.6863261259675
100.26,284.3288487628598,286.34117334298116,287.6237152250893,288.0097479365782,287.4954319837637,286.20997916012783,284.6548844070291
101.63,284.2908524417431,286.2738394695353,287.5410839480705,287.92687483192674,287.42456082814704,286.1587982916979,284.62354755056504
103.0,284.2536496408611,286.2078067641488,287.4598443166758,287.84512841177855,287.3543915123551,286.1079395807367,284.5923300402545
104.38,284.21695081454413,286.14256809890355,287.37938516221556,287.7639094989813,287.28442409877,286.0570501569215,284.56101906522184
105.75,284.1812626094241,286.079031569545,287.3008405194452,287.6843804978072,287.21567626462564,286.0068811193753,284.53008116302624
107.13,284.1460397875842,286.0162335421576,287.22303253252136,287.605365660515,287.1471472798592,285.95671267608105,284.49907670340826
108.5,284.1117699561176,285.95504994469775,287.1470590104294,287.52799563035734,287.07983243693997,285.9072833531422,284.46846611212123
109.87,284.0781736209818,285.89498890292634,287.07232279498095,287.45167960196966,287.0132339649361,285.8582386765254,284.43803437384577
111.25,284.04499200519547,285.83559278039957,286.99826391107916,287.3758577242518,286.9468744009943,285.8092344885925,284.4075709552745
112.62,284.01268616281277,285.7776923793753,286.9259287838955,287.30161473374693,286.88171567184173,285.7609896597686,284.3775262106066
114.0,283.9807653490806,285.7204133951673,286.8542351824278,287.2278526644404,286.8168061915167,285.7128077965734,284.34746979010583
115.37,283.9496740885483,285.66455837724175,286.784197016683,287.155626688807,286.75308580240824,285.665394236101,284.31784483147624
116.74000000000001,283.9191616597242,285.60968222582756,286.71526642216736,287.0843850161953,286.69008018578796,285.61840459628957,284.2884396601845
118.12,283.88899503199326,285.55536954368483,286.6469287274387,287.0136048053667,286.62733548393555,285.5715061897792,284.25904844629093
119.49000000000001,283.85959557003497,285.5023830776879,286.5801515761532,286.94429848312006,286.565758835724,285.5253836534146,284.23010294774855
120.86,283.83072757546927,285.4503025129268,286.5144139391779,286.8759364922902,286.5048904002549,285.47969987058974,284.20139459662164
122.24000000000001,283.8021715378875,285.3987349472924,286.4492258922553,286.8080170638818,286.44429069744365,285.4341299673617,284.17272126354464
123.61,283.7743273931382,285.34840606755546,286.38551151178467,286.7415116576766,286.3848347224414,285.3893375670591,284.1445028197028
124.98,283.74697307654554,285.29891827498346,286.32277480964893,286.6759120848832,286.3260772362957,285.3449934876943,284.11653444818467
126.36,283.7199013966233,285.24989935776335,286.26054900914033,286.6107368212119,286.26759315188934,285.3007811682555,284.0886182250239
127.73,283.6934924013994,285.20204040257664,286.19971708312755,286.54691805692516,286.2102259712111,285.25734309017776,284.06116179316757
129.11,283.66734863470316,285.1546239293801,286.1393725054351,286.4835118003131,286.15313384685226,285.21404642511357,284.03376704155846
130.48,283.6418376452475,285.10831917643736,286.0803720810314,286.4214249368696,286.09713965733624,285.1715195475249,284.0068333298932
131.85,283.61675750414656,285.06276249620583,286.0222580546747,286.36018303631863,286.0418224802204,285.12944756070874,283.9801631863653
133.23,283.59191930430444,285.01761273498215,285.96459909551675,286.2993365491202,285.9867810142276,285.0875285151742,283.9535665334841
134.6,283.5676729217882,284.97350810359876,285.9082145656994,286.2397557540951,285.9328078766774,285.0463697522212,283.9274302259419
135.97,283.54382718475887,284.93010329331105,285.8526677676226,286.1809853835604,285.8794965665665,285.0056653600692,283.90156167650946
137.35,283.5202030003548,284.8870739955634,285.79754694671055,286.12259403586967,285.82645980503605,284.9651224239344,283.87577586759056
138.72,283.49713372199386,284.8450292682923,285.7436359874266,286.0654168864158,285.7744607486729,284.92532746732974,283.85044712119355
140.1,283.47427378442865,284.80334110655394,285.69013316044715,286.0086082060246,285.7227346303351,284.88569822014455,283.82520606331644
141.47,283.45194609628686,284.7626000675709,285.63779968910944,285.9529805433543,285.67202540310933,284.8468074736993,283.8004186759662
142.84,283.4299756000306,284.72248858218904,285.5862312700587,285.89810886878695,285.62195013794525,284.8083646594134,283.7759010365425
144.22,283.40819796741863,284.68270791583416,285.53504633732894,285.8435904171668,285.572144371262,284.7700921047352,283.7514769223086
145.59,283.38692125904487,284.6438222309788,285.48497359114924,285.7902049961743,285.52332399186156,284.73254232472084,283.7274999085938
146.97,283.36582749132657,284.6052517483884,285.4352691376135,285.7371629891574,285.4747702420197,284.69516478882736,283.703619397971
148.34,283.34521530950485,284.5675438364432,285.38664086832574,285.6852230969279,285.4271807554088,284.65849870158576,283.6801807680098
149.71,283.3249238585739,284.53040564313267,285.3387138890119,285.63398850125844,285.3801954016312,284.62226896942377,283.65700913671265
151.09,283.30480188701114,284.49356131661966,285.2911341149573,285.5830831555023,285.333471685471,284.5862131222608,283.6339372969083
152.46,283.2851346169527,284.4575342078813,285.2445795280391,285.5332352149939,285.2876806110508,284.55085079246567,283.6112985042571
153.83,283.26576893632887,284.42204504596754,285.19869160701535,285.4840638639109,285.2424752893832,284.5159161114748,283.58892337474725
155.21,283.24656074815834,284.3868305899444,285.153131596354,285.4352082122423,285.1975259484254,284.48115561102014,283.56665012829444
156.58,283.22778260736646,284.3523914472833,285.10854899619864,285.38736711217933,285.1534778271453,284.4470698267666,283.54480012409647
157.95000000000002,283.20928863774344,284.31846110540795,285.0646008011749,285.3401750977655,285.1099969291908,284.41340201622404,283.523209481749
159.33,283.19094144442295,284.28478819428324,285.02096280098016,285.29328581842583,285.06676584899066,284.37990758060636,283.50172182152255
160.70000000000002,283.17300160794804,284.2518517539133,284.97825735035315,285.2473700131211,285.02440492075795,284.34706846189334,283.4806468618356
162.08,283.1552020156904,284.21916213973464,284.93585105679574,285.2017486022564,284.98228948134187,284.31440167115267,283.459675152683
163.45000000000002,283.13779561335355,284.1871846070546,284.8943488585124,285.15707419727835,284.94102371642276,284.2823770293647,283.4391087965234
164.82,283.1206475970049,284.1556722884507,284.8534318878597,285.11300554972985,284.90029431683575,284.2507526958469,283.418793014076
166.20000000000002,283.10363085702517,284.1243921365115,284.8127985963376,285.06921924973403,284.8598036816149,284.21929849167446,283.3985802996918
167.57,283.08698739955815,284.0937896115825,284.77302882474504,285.0263416697882,284.82013250578024,284.18846652273425,283.3787615897961
168.94,283.0705885333352,284.0636287534081,284.73381723088613,284.98404530041614,284.7809793876999,284.1580236519155,283.359187475727
170.32,283.05431284193907,284.0336867096491,284.6948749817799,284.9420197473794,284.742058107379,284.127748092254,283.33971566181714
171.69,283.03839195028365,284.00439011035223,284.6567579529494,284.90086620608713,284.7039266994288,284.0980747749751,283.3206262230401
173.07,283.02258925183503,283.97530405974453,284.618901275223,284.859976059114,284.6660224334326,284.0685666086152,283.3016383020853
174.44,283.00712973282396,283.94684312380116,284.5818454258631,284.81993426583864,284.62888867271147,284.0396473636049,283.28302489845987
175.81,282.9918941270628,283.91878824240405,284.5453061849311,284.7804349963001,284.59224303038667,284.01109796516124,283.2646453514057
177.19,282.97676981661436,283.8909323896543,284.5090145996307,284.74118839582724,284.55581743644353,283.9827101466977,283.2463658177322
178.56,282.9619722498084,283.86367276979644,284.47348892944353,284.7027559204436,284.52013394070644,283.9548914118935,283.22844896238104
179.93,282.9473873998697,283.8367997589364,284.4384568308484,284.6648440414168,284.48492105679554,283.9274308276174,283.2107592235735
181.31,282.93290755009957,283.8101151827862,284.40366054045376,284.6271745592419,284.44992110779924,283.9001279365765,283.19316766869395
182.68,282.9187390708422,283.7839996906785,284.3695970722986,284.5902863753989,284.41563561249205,283.87337451809304,283.17592694993454
184.06,282.904671688431,283.75806602371455,284.33576193391957,284.5536339735258,284.3815583165186,283.84677606372804,283.1587830485764
185.43,282.89090595480064,283.73268420578785,284.3026384741311,284.5177417091488,284.3481774600138,283.82071415655645,283.14198211324975
186.8,282.87733597013994,283.7076593049214,284.2699729506076,284.4823354674964,284.31523890605627,283.7949909263277,283.1253968074219
188.18,282.86386163372254,283.6828069483334,284.2375251402072,284.44715544444864,284.282501504504,283.76941842144566,283.10890609905397
189.55,282.8506751209452,283.658481843636,284.2057586556717,284.41270493727575,284.25043422320135,283.7443633923882,283.0927466619128
190.92000000000002,282.8376750740998,283.6344972976901,284.17443024064517,284.37872084862227,284.2187928432299,283.7196354876701,283.0767959152897
192.3,282.8247656557683,283.61067668713895,284.1433095673755,284.3449538142739,284.1873456547629,283.6950539421226,283.06093738520593
193.67000000000002,282.81213105084174,283.58736008910745,284.11284135667364,284.31188692183497,284.15654307950064,283.67097119735234,283.0453985906247
195.04,282.7996742171124,283.5643686555134,284.08279237116227,284.2792676461416,284.1261504602497,283.64720418194383,283.03006156878604
196.42000000000002,282.78730337202416,283.5415331482092,284.0529417424467,284.2468566413343,284.09594518386467,283.6235790819361,283.0148142655458
197.79,282.7751950729729,283.5191796613596,284.02371610178005,284.2151175993111,284.0663598299808,283.6004345435089,282.9998753613197
