time (s),temp0,temp1,temp2,temp3,temp4,temp5,temp6,alpha value:,3.71E-05
0,322.03,304.52,295.96,290.77,288.09,286.65,285.59,,
1.37,314.4411916,297.921855,289.6852314,287.3010957,285.7436536,285.1829033,284.8412296,,
2.75,313.4770406,297.6366496,289.6732337,287.2408567,285.7376405,285.1673208,284.8494462,,
4.12,312.4042445,297.7261189,289.7921717,287.2412229,285.7569428,285.1673264,284.8586975,,
5.5,311.0816879,297.93961,289.9620339,287.2627848,285.7854571,285.1728724,284.8630531,,
6.87,309.665688,298.173648,290.1451859,287.2940346,285.8161066,285.180668,284.8616772,,
8.24,308.253017,298.3831377,290.3304152,287.3318498,285.8467919,285.1894896,284.8558909,,
9.62,306.8910616,298.5479289,290.5150825,287.3756331,285.8771179,285.1988309,284.8471339,,
10.99,305.6249607,298.6579665,290.6949196,287.4243039,285.9066199,285.2082399,284.8367649,,
12.36,304.4524296,298.7145102,290.8700835,287.477744,285.9356854,285.217599,284.8256082,,
13.74,303.3649594,298.7212762,291.0405172,287.5359314,285.9647375,285.2268726,284.8141801,,
15.11,302.3731598,298.6838649,291.2024211,287.5975303,285.9935651,285.2358831,284.8030423,,
16.48,301.4620003,298.6087364,291.3558052,287.6624406,286.0225639,285.2446962,284.7923633,,
17.86,300.618375,298.5011192,291.5006146,287.7306501,286.052104,285.2534005,284.7822262,,
19.23,299.847424,298.3682369,291.6339216,287.800647,286.0818813,285.261914,284.7728671,,
20.61,299.1312317,298.2132294,291.7571012,287.872925,286.1124259,285.2704161,284.7641948,,
21.98,298.4741804,298.0427066,291.8680551,287.9459203,286.1433615,285.2788432,284.756351,,
23.35,297.8655213,297.859318,291.9676287,288.0196515,286.1749488,285.2873175,284.7492679,,
24.73,297.2965133,297.6647506,292.0565246,288.0941798,286.2074443,285.295961,284.7428882,,
26.1,296.771147,297.4644559,292.1337058,288.1679719,286.2403756,285.3047048,284.7372837,,
27.47,296.2813972,297.2592296,292.2002224,288.2411499,286.2739562,285.3136622,284.7323816,,
28.85,295.8207136,297.0493412,292.2568981,288.3138558,286.3084028,285.3229477,284.7281283,,
30.22,295.3928083,296.8393199,292.3034216,288.384693,286.3431675,285.3324674,284.7245599,,
31.6,294.9887769,296.6273288,292.3410235,288.4543906,286.378697,285.3423954,284.7215994,,
32.97,294.6121333,296.4174307,292.3697238,288.5216769,286.4144076,285.3526164,284.719266,,
34.34,294.2577808,296.2088863,292.3903939,288.5868427,286.4504796,285.3632238,284.7175143,,
35.72,293.9214993,296.0008369,292.4036646,288.6501542,286.4870986,285.3743163,284.7163168,,
37.09,293.6064924,295.796811,292.4098941,288.7105442,286.52365,285.3857443,284.7156718,,
38.47,293.3066486,295.594238,292.4097102,288.7687757,286.560581,285.397681,284.7155517,,
39.84,293.0249656,295.3963677,292.403624,288.8239167,286.5972707,285.4099544,284.7159413,,
41.21,292.7580021,295.2019586,292.3921371,288.8763373,286.6339023,285.4226459,284.7168218,,
42.59,292.5028655,295.0098077,292.3755664,288.9263519,286.6706595,285.4358452,284.7181898,,
43.96,292.2622594,294.8228259,292.3545811,288.973218,286.7069301,285.4493495,284.7200106,,
45.33,292.0333906,294.6396904,292.3294783,289.0173085,286.7429056,285.4632383,284.7222782,,
46.71,291.8138914,294.4591559,292.3004073,289.0589309,286.7787731,285.4775995,284.7249997,,
48.08,291.6061962,294.2838593,292.2681387,289.0975111,286.8139456,285.4922046,284.7281216,,
49.46,291.4065847,294.1112389,292.2325289,289.1336532,286.8488736,285.5072444,284.7316754,,
50.83,291.2173266,293.9437747,292.1943944,289.1668832,286.8829932,285.5224768,284.7355955,,
52.2,291.0363743,293.7801646,292.1537642,289.1975301,286.9165074,285.5379843,284.7398919,,
53.58,290.8619702,293.6192071,292.110573,289.2258533,286.9496062,285.5538562,284.7445857,,
54.95,290.6961606,293.4631761,292.0656838,289.2515112,286.9817671,285.5698353,284.7495942,,
56.33,290.5360772,293.3097263,292.0186616,289.2749515,287.0134214,285.5861265,284.7549754,,
57.7,290.3836313,293.1610092,291.9703889,289.2959098,287.0440771,285.6024657,284.7606364,,
59.07,290.2372632,293.0158231,291.9207148,289.3146413,287.0739373,285.6189423,284.7665996,,
60.44,290.0966257,292.8740883,291.8698084,289.3312242,287.1029776,285.6355283,284.7728498,,
61.82,289.9604295,292.7347254,291.8174417,289.3458354,287.1313798,285.6523182,284.77942,,
63.19,289.8303485,292.5996704,291.7645168,289.3583422,287.1587153,285.6690414,284.786199,,
64.57,289.7042024,292.4668667,291.7103937,289.3690067,287.1853693,285.6859153,284.7932699,,
65.94,289.5835604,292.3381546,291.6559773,289.3777521,287.2109451,285.7026695,284.8005142,,
67.31,289.4672515,292.2124767,291.6009877,289.3847388,287.2356316,285.7194012,284.8079665,,
68.69,289.3542478,292.0888651,291.5451189,289.3900744,287.2595945,285.736208,284.8156673,,
70.06,289.2459773,291.9690291,291.4892729,289.3937551,287.2824845,285.7528233,284.8234892,,
71.44,289.1406616,291.8511376,291.4327198,289.3959074,287.3046357,285.769467,284.8315305,,
72.81,289.0396437,291.7368197,291.3763563,289.3965702,287.3257293,285.7858769,284.839659,,
74.18,288.9419767,291.6251338,291.3198434,289.395832,287.3459333,285.8021539,284.847917,,
75.56,288.8468224,291.5152171,291.2628319,289.3937387,287.3653913,285.8183962,284.8563509,,
76.93,288.7554091,291.4085884,291.2062065,289.3903844,287.3838287,285.8343503,284.8648235,,
78.31,288.6662591,291.3036182,291.1491943,289.3857823,287.4015233,285.8502322,284.8734437,,
79.68,288.5805314,291.2017573,291.0926701,289.3800587,287.4182288,285.8657957,284.8820721,,
81.05,288.497445,291.1021685,291.0362645,289.3732417,287.4340876,285.881142,284.890757,,
82.43,288.4163037,291.004083,290.9796072,289.365325,287.4492181,285.8963667,284.8995487,,
83.8,288.3381722,290.9088578,290.9235556,289.3564765,287.4634139,285.9112364,284.9083064,,
85.18,288.2618041,290.8150396,290.8673246,289.3466186,287.4768958,285.9259562,284.917145,,
86.55,288.1882071,290.7239276,290.8117587,289.3359432,287.4894826,285.9403018,284.9259238,,
87.92,288.1167268,290.634776,290.7564761,289.3244288,287.5012895,285.9543711,284.9346949,,
89.3,288.0467755,290.5468984,290.7011006,289.3120276,287.5124092,285.9682543,284.9435106,,
90.67,287.9792833,290.4615133,290.6464564,289.2989624,287.5226959,285.9817422,284.9522318,,
92.05,287.9131851,290.3773203,290.5917651,289.2850843,287.5323156,285.9950241,284.9609752,,
93.42,287.8493638,290.2954882,290.5378367,289.2706339,287.5411447,286.0079007,284.9696036,,
94.8,287.7868158,290.2147719,290.4838992,289.2554385,287.5493283,286.0205542,284.9782332,,
96.17,287.7263802,290.1362929,290.430748,289.2397544,287.5567638,286.0327959,284.9867295,,
97.55,287.6671101,290.0588586,290.3776192,289.2233875,287.563576,286.0448,284.9952076,,
98.92,287.6098035,289.9835459,290.3252931,289.206608,287.5696823,286.0563886,285.0035361,,
100.29,287.5539677,289.9097447,290.2733923,289.1893307,287.5751505,286.0676466,285.0117688,,
101.67,287.4991559,289.8368902,290.2215506,289.1714542,287.5800295,286.0786498,285.0199572,,
103.04,287.4461102,289.7659976,290.1705259,289.1532664,287.5842644,286.0892366,285.0279753,,
104.42,287.3940058,289.695992,290.119579,289.1345294,287.5879331,286.09956,285.0359336,,
105.79,287.3435502,289.6278498,290.069453,289.1155408,287.5909979,286.1094691,285.0437103,,
107.16,287.2943163,289.5610221,290.0197808,289.0961911,287.5935027,286.1190393,285.0513577,,
108.54,287.2459145,289.4949995,289.9702078,289.076359,287.5954751,286.1283365,285.0589247,,
109.91,287.1990051,289.4307043,289.9214546,289.0563545,287.5969014,286.137226,285.0662965,,
111.29,287.1528635,289.3671642,289.8728112,289.0359073,287.5978173,286.1458383,285.0735761,,
112.66,287.1081208,289.3052677,289.8249833,289.0153344,287.5982239,286.1540493,285.0806534,,
114.03,287.0644031,289.244519,289.7776172,288.9945079,287.5981441,286.1619239,285.0875779,,
115.41,287.0213677,289.1844567,289.7303721,288.9732919,287.5975858,286.1695174,285.0943948,,
116.78,286.9796057,289.125922,289.6839319,288.9520115,287.596571,286.1767216,285.1010018,,
118.16,286.9384754,289.0680318,289.6376177,288.9303731,287.5950983,286.1836437,285.1074925,,
119.53,286.8985429,289.0115976,289.5920992,288.9087064,287.5932023,286.1901858,285.1137702,,
120.9,286.8594781,288.9561697,289.5470374,288.8868704,287.5908868,286.1964017,285.11988,,
122.28,286.8209775,288.9013286,289.502106,288.8647185,287.5881428,286.202336,285.1258626,,
123.65,286.7835726,288.8478444,289.457954,288.8425856,287.5850226,286.2079057,285.1316295,,
125.03,286.7466916,288.7949117,289.413934,288.8201618,287.5814928,286.2131953,285.1372633,,
126.4,286.7108446,288.7432744,289.3706809,288.7977846,287.5776162,286.2181313,285.142681,,
127.78,286.6754847,288.6921558,289.3275603,288.7751393,287.5733479,286.2227894,285.1479607,,
129.15,286.6411018,288.6422748,289.2851936,288.7525653,287.568761,286.2271057,285.153025,,
130.53,286.6071722,288.5928818,289.2429589,288.729744,287.5637996,286.2311468,285.1579472,,
131.9,286.5741667,288.5446719,289.2014645,288.7070162,287.5585463,286.2348582,285.1626555,,
133.27,286.5418172,288.4972644,289.160399,288.6842265,287.5529766,286.2382739,285.1671861,,
134.65,286.5098755,288.4503026,289.1194634,288.6612171,287.5470568,286.2414199,285.1715701,,
136.02,286.4787858,288.4044481,289.0792469,288.6383301,287.5408824,286.2442545,285.175744,,
137.4,286.4480765,288.3590133,289.0391583,288.6152399,287.5343732,286.2468235,285.1797692,,
138.77,286.4181754,288.3146389,288.9997743,288.5922888,287.5276327,286.2490937,285.1835878,,
140.14,286.3888415,288.270976,288.9607986,288.569317,287.5206241,286.2510891,285.1872301,,
141.52,286.3598509,288.2276968,288.9219469,288.5461639,287.5133021,286.2528256,285.1907218,,
142.89,286.3316083,288.1854125,288.8837778,288.5231715,287.5057816,286.2542823,285.194013,,
144.27,286.3036867,288.1434899,288.8457297,288.5000107,287.4979613,286.2554851,285.1971529,,
145.64,286.2764763,288.1025214,288.8083494,288.4770232,287.4899628,286.2564208,285.200097,,
147.01,286.2497594,288.0621861,288.7713555,288.4540467,287.4817382,286.2571036,285.2028701,,
148.39,286.223333,288.022182,288.7344775,288.4309191,287.4732329,286.2575402,285.2054919,,
149.76,286.1975673,287.983075,288.6982455,288.4079806,287.4645776,286.2577286,285.2079258,,
151.14,286.1720737,287.9442805,288.6621259,288.3849014,287.4556535,286.2576761,285.210209,,
152.51,286.1472097,287.9063476,288.6266376,288.3620203,287.4465972,286.2573879,285.21231,,
153.89,286.1226007,287.8687094,288.5912582,288.3390078,287.4372833,286.2568643,285.2142611,,
155.26,286.0985922,287.8318992,288.5564957,288.3162015,287.4278538,286.2561174,285.2160359,,
156.63,286.0749937,287.7956301,288.5220882,288.2934383,287.4182482,286.2551485,285.2176509,,
158.01,286.0516269,287.7596314,288.4877837,288.2705561,287.4084012,286.2539526,285.2191181,,
159.38,286.0288204,287.7244134,288.4540751,288.24789,287.3984615,286.2525514,285.2204182,,
160.76,286.0062314,287.6894508,288.4204657,288.2251125,287.3882903,286.2509287,285.2215722,,
162.13,285.9841779,287.6552393,288.3874384,288.2025566,287.3780408,286.2491125,285.2225654,,
163.5,285.9624857,287.6215135,288.3547439,288.18006,287.3676456,286.2470961,285.2234088,,
164.88,285.9409916,287.588022,288.322143,288.1574618,287.3570328,286.2448667,285.2241091,,
166.25,285.9199985,287.5552404,288.2901038,288.1350922,287.3463617,286.2424609,285.2246583,,
167.63,285.8991916,287.5226801,288.2581543,288.1126269,287.3354818,286.2398478,285.2250665,,
169,285.8788644,287.4908038,288.2267534,288.0903938,287.324556,286.2370694,285.2253302,,
170.38,285.8587123,287.4591367,288.1954383,288.0680704,287.3134297,286.2340893,285.2254553,,
171.75,285.8390199,287.4281287,288.1646589,288.0459823,287.302269,286.2309547,285.2254423,,
173.12,285.8196327,287.3975403,288.134183,288.0239693,287.2909984,286.2276488,285.225295,,
174.5,285.8004053,287.3671441,288.1037874,288.0018733,287.2795392,286.2241494,285.225013,,
175.87,285.7816096,287.3373723,288.0739087,287.9800161,287.2680617,286.2205112,285.2246026,,
177.25,285.7629645,287.3077823,288.0441066,287.9580802,287.2564028,286.2166851,285.2240603,,
178.62,285.7447336,287.2787949,288.0148092,287.9363849,287.2447357,286.2127302,285.2233961,,
179.99,285.7267746,287.2501867,287.9857956,287.9147723,287.2329803,286.2086232,285.2226089,,
181.37,285.7089533,287.2217455,287.9568534,287.8930867,287.2210539,286.2043362,285.2216939,,
182.74,285.691522,287.1938762,287.9283981,287.8716436,287.2091331,286.199935,285.2206666,,
184.12,285.6742204,287.1661647,287.9000107,287.850131,287.1970477,286.1953591,285.2195144,,
185.49,285.6572937,287.1390059,287.8720989,287.8288617,287.1849765,286.1906783,285.2182561,,
186.86,285.6406102,287.1121907,287.8444524,287.8076802,287.1728358,286.1858634,285.2168862,,
188.24,285.6240454,287.0855207,287.8168687,287.7864339,287.1605396,286.1808814,285.2153957,,
189.61,285.6078344,287.059376,287.7897441,287.7654314,287.1482695,286.1758078,285.2138084,,
190.99,285.5917354,287.0333684,287.7626791,287.7443668,287.1358497,286.1705721,285.2121034,,
192.36,285.5759769,287.0078688,287.7360624,287.7235459,287.1234633,286.1652534,285.2103076,,
193.73,285.5604367,286.9826817,287.7096937,287.7028165,287.1110236,286.1598174,285.2084113,,
195.11,285.5449992,286.9576206,287.6833799,287.6820287,287.0984423,286.1542265,285.2064017,,
196.48,285.5298836,286.9330432,287.657499,287.6614842,287.0859046,286.1485648,285.20431,,
197.86,285.5148649,286.908585,287.63167,287.6408835,287.0732302,286.1427527,285.202108,,
199.23,285.5001564,286.8845951,287.606264,287.6205257,287.0606058,286.1368777,285.1998296,,
200.61,285.4855395,286.8607179,287.580907,287.6001137,287.0478495,286.1308569,285.1974437,,
201.98,285.4712218,286.8372942,287.5559633,287.5799437,287.035149,286.1247806,285.194987,,
203.35,285.4570929,286.814145,287.5312453,287.5598677,287.0224145,286.1186084,285.1924446,,
204.73,285.4430478,286.7910993,287.506572,287.5397403,287.009555,286.1122971,285.1897989,,
206.1,285.4292865,286.7684863,287.4822981,287.5198535,286.9967594,286.1059409,285.1870904,,
207.48,285.4156045,286.7459711,287.4580663,287.499917,286.9838432,286.0994498,285.1842816,,
208.85,285.4021963,286.7238755,287.4342249,287.4802199,286.9709958,286.0929207,285.1814151,,
210.22,285.388959,286.7020308,287.4105946,287.4606173,286.9581259,286.0863093,285.1784728,,
211.6,285.3757944,286.6802759,287.3870026,287.4409674,286.9451415,286.0795693,285.1754342,,
212.97,285.36289,286.6589218,287.363788,287.4215549,286.9322328,286.0728007,285.1723454,,
214.34,285.3501466,286.6378057,287.3407763,287.402237,286.9193079,286.0659576,285.1691864,,
215.72,285.33747,286.6167721,287.3177993,287.3828737,286.9062741,286.0589917,285.1659353,,
217.09,285.3250408,286.5961217,287.2951872,287.3637456,286.8933222,286.0520064,285.162641,,
218.47,285.3126746,286.5755491,287.2726073,287.3445733,286.8802651,286.044902,285.1592572,,
219.84,285.3005477,286.5553486,287.2503845,287.3256346,286.8672937,286.0377839,285.1558346,,
221.22,285.2884803,286.5352215,287.2281917,287.3066529,286.8542205,286.0305505,285.1523252,,
222.59,285.2766446,286.5154558,287.2063481,287.287903,286.8412366,286.0233087,285.1487814,,
223.96,285.2649499,286.4959014,287.1846898,287.2692471,286.828249,286.0160087,285.1451798,,
225.34,285.2533098,286.4764141,287.1630584,287.2505496,286.8151644,286.0085986,285.141495,,
226.71,285.2418904,286.4572731,287.141765,287.2320815,286.802174,286.0011879,285.1377822,,
228.09,285.2305226,286.4381955,287.1204964,287.2135728,286.7890897,285.9936706,285.1339886,,
229.46,285.2193686,286.4194544,287.0995587,287.1952915,286.7761026,285.9861576,285.1301709,,
230.84,285.2082634,286.4007731,287.0786438,287.1769706,286.7630244,285.9785412,285.126275,,
232.21,285.1973654,286.3824191,287.0580528,287.1588754,286.7500463,285.9709338,285.1223587,,
233.58,285.1865915,286.3642532,287.0376313,287.1408723,286.7370746,285.9632822,285.1183956,,
234.96,285.1758622,286.3461419,287.0172299,287.1228309,286.7240162,285.955532,285.1143576,,
236.33,285.165331,286.3283446,286.9971422,287.1050121,286.7110614,285.9477972,285.1103048,,
237.71,285.1548418,286.3105988,286.977073,287.0871557,286.6980225,285.9399669,285.1061794,,
239.08,285.1445446,286.2931586,286.9573109,287.0695201,286.6850896,285.9321562,285.1020426,,
240.45,285.1343612,286.2758921,286.9377081,287.0519752,286.6721693,285.9243103,285.0978661,,
241.83,285.1242162,286.2586724,286.9181213,287.0343937,286.6591686,285.916373,285.0936202,,
243.2,285.114255,286.2417464,286.8988322,287.01703,286.6462771,285.9084612,285.0893678,,
244.58,285.1043301,286.2248643,286.8795576,286.9996303,286.6333074,285.900461,285.0850482,,
245.95,285.0945837,286.2082684,286.8605747,286.9824464,286.6204488,285.8924898,285.0807252,,
247.32,285.0849415,286.191833,286.8417417,286.9653515,286.607608,285.8844913,285.0763688,,
248.7,285.0753326,286.1754377,286.8229207,286.9482216,286.5946926,285.8764084,285.0719483,,
250.07,285.0658945,286.1593175,286.8043829,286.9313044,286.5818907,285.8683596,285.0675288,,
251.45,285.0564877,286.1432348,286.7858558,286.9143527,286.5690163,285.8602289,285.063047,,
252.82,285.047247,286.1274203,286.7676062,286.8976118,286.5562568,285.8521356,285.058569,,
254.19,285.0381023,286.1117546,286.7494977,286.8809581,286.5435198,285.8440222,285.0540636,,
255.57,285.0289862,286.0961229,286.7313979,286.8642706,286.5307134,285.8358305,285.0494987,,
256.94,285.0200293,286.0807495,286.7135675,286.8477908,286.5180239,285.8276807,285.0449415,,
258.32,285.0110993,286.0654078,286.6957445,286.8312778,286.5052669,285.819455,285.0403267,,
259.69,285.0023243,286.0503181,286.6781858,286.8149704,286.492628,285.8112739,285.0357221,,
261.07,284.9935745,286.035258,286.6606334,286.7986302,286.4799235,285.8030192,285.0310615,,
262.44,284.9849756,286.0204437,286.64334,286.7824937,286.4673382,285.7948117,285.0264135,,
263.81,284.9764622,286.0057637,286.6261767,286.7664417,286.4547807,285.7865928,285.0217454,,
265.19,284.967972,285.9911104,286.6090179,286.7503575,286.4421601,285.7783036,285.0170239,,
266.56,284.9596266,285.9766941,286.5921109,286.7344739,286.4296601,285.7700654,285.0123183,,
267.94,284.9513028,285.9623027,286.5752075,286.7185586,286.4170989,285.7617588,285.0075608,,
269.31,284.94312,285.9481427,286.5585511,286.7028419,286.404659,285.7535055,285.0028214,,
270.69,284.9349576,285.9340058,286.5418973,286.6870939,286.3921594,285.7451859,284.9980317,,
272.06,284.9269326,285.920095,286.5254859,286.6715424,286.3797819,285.7369216,284.993262,,
273.43,284.9189843,285.9063058,286.5091946,286.6560726,286.3674364,285.7286534,284.9884785,,
274.81,284.9110545,285.892537,286.4929043,286.6405722,286.3550335,285.7203218,284.9836469,,
276.18,284.9032569,285.8789867,286.47685,286.6252652,286.3427535,285.7120485,284.9788382,,
277.56,284.8954766,285.8654554,286.4607958,286.6099279,286.3304177,285.7037137,284.9739828,,
278.93,284.8878251,285.8521375,286.4449732,286.5947822,286.3182053,285.6954391,284.9691519,,
280.3,284.8802448,285.838933,286.4292641,286.5797161,286.3060272,285.687165,284.9643112,,
281.68,284.8726802,285.8257453,286.413554,286.5646202,286.2937954,285.6788321,284.959426,,
283.05,284.8652397,285.812764,286.3980693,286.5497129,286.2816876,285.6705619,284.9545677,,
284.43,284.8578137,285.799798,286.3825827,286.5347762,286.2695275,285.6622345,284.9496662,,
285.8,284.8505089,285.7870339,286.3673175,286.520026,286.2574915,285.6539713,284.9447932,,
287.18,284.8432177,285.7742838,286.3520497,286.5052468,286.2454045,285.6456526,284.9398783,,
288.55,284.8360447,285.7617312,286.3369994,286.4906522,286.233442,285.6373996,284.9349932,,
289.92,284.8289359,285.7492819,286.3220545,286.4761345,286.2215165,285.6291527,284.9301032,,
291.3,284.8218393,285.7368448,286.3071058,286.4615881,286.2095419,285.6208526,284.925173,,
292.67,284.8148568,285.7245988,286.2923691,286.4472235,286.1976918,285.6126202,284.9202748,,
294.05,284.8078856,285.7123639,286.277628,286.4328306,286.1857938,285.6043361,284.9153376,,
