time (s),temp0,temp1,temp2,temp3,temp4,temp5,temp6,alpha value:,3.81E-05
0,316.15,302.02,294.84,290.46,287.9,286.34,285.21,,
1.37,310.6259783,299.2279445,293.1359739,289.4641352,287.2930634,285.9002876,285.2127531,,
2.75,309.8851772,299.0754418,293.0327623,289.404975,287.2557213,285.8733405,285.230699,,
4.12,308.991767,299.151467,293.0591498,289.4226369,287.2633682,285.881029,285.2516492,,
5.5,307.8780269,299.29415,293.1273664,289.464935,287.2849744,285.900914,285.2643484,,
6.87,306.6877006,299.4366244,293.2091742,289.51471,287.3109406,285.9246907,285.2673537,,
8.24,305.5038306,299.5502194,293.2963626,289.5669694,287.3386614,285.9492663,285.2631148,,
9.62,304.3652697,299.6222497,293.3865948,289.6205457,287.3676173,285.9734411,285.2541586,,
10.99,303.3084859,299.647823,293.4768964,289.6742492,287.3971955,285.9962654,285.2426483,,
12.36,302.3304959,299.6290286,293.56639,289.7283876,287.4275238,286.0176947,285.2299268,,
13.74,301.4234484,299.5694249,293.6541169,289.7833579,287.4587595,286.0378457,285.2168115,,
15.11,300.5957012,299.4751964,293.7372479,289.8383498,287.4903705,286.0565109,285.2040713,,
16.49,299.8291001,299.3505797,293.8155817,289.8941096,287.5227346,286.0741045,285.1918762,,
17.86,299.1285237,299.2026689,293.8868218,289.9497209,287.5553032,286.0905348,285.1806074,,
19.23,298.4822474,299.0354072,293.9506774,290.0054274,287.588236,286.1060992,285.1702819,,
20.61,297.8806072,298.8515663,294.0069194,290.0614316,287.6217111,286.1210622,285.1608819,,
21.98,297.3273561,298.6573832,294.0543742,290.1166859,287.6551838,286.1353529,285.1525515,,
23.36,296.8099438,298.4530643,294.0935917,290.1717385,287.6890875,286.1493117,285.1451528,,
24.73,296.3319409,298.2440821,294.1240395,290.2255283,287.7228788,286.1628503,285.1387624,,
26.1,295.8860074,298.0310482,294.1462074,290.2781977,287.7567518,286.1761693,285.1332846,,
27.48,295.4661496,297.8140814,294.1604488,290.3298685,287.7909025,286.189448,285.1286463,,
28.85,295.0757401,297.5977191,294.1669133,290.3795615,287.8247829,286.2025645,285.1248707,,
30.22,294.7092488,297.3815187,294.1661375,290.4274502,287.8585855,286.2156736,285.1218773,,
31.6,294.3621197,297.164822,294.1584778,290.473681,287.8924989,286.228919,285.11961,,
32.97,294.0374932,296.951499,294.1444992,290.5174288,287.9259729,286.2421466,285.1180611,,
34.34,293.7311035,296.7405502,294.1246251,290.5589084,287.9591943,286.2554813,285.1171729,,
35.72,293.4394006,296.5309201,294.0991015,290.598295,287.9923422,286.2690432,285.1169095,,
37.09,293.1652671,296.3259992,294.0687388,290.6349402,288.024876,286.2826505,285.1172405,,
38.47,292.9034829,296.1230665,294.0335217,290.6693241,288.0572108,286.2965104,285.118138,,
39.84,292.656757,295.9252615,293.9943649,290.7009147,288.0888205,286.3104252,285.1195585,,
41.21,292.4221702,295.7312413,293.9514099,290.7299559,288.1198857,286.3244931,285.1214779,,
42.59,292.1972531,295.5397268,293.9046645,290.7566333,288.1505741,286.3388129,285.1238882,,
43.96,291.9844648,295.3535503,293.8551435,290.7805768,288.1803911,286.3531676,285.1267285,,
45.34,291.7799652,295.1700197,293.8024418,290.8021649,288.2097253,286.3677544,285.1300152,,
46.71,291.586057,294.9917953,293.7476158,290.8211243,288.2381089,286.382347,285.1336766,,
48.08,291.4006248,294.8175127,293.6905629,290.8376686,288.2657184,286.3970338,285.1377123,,
49.46,291.2218536,294.6459065,293.6310948,290.8519483,288.2927117,286.4119041,285.1421333,,
50.83,291.0518304,294.4794143,293.5703048,290.863818,288.3186666,286.4267225,285.1468539,,
52.2,290.8887722,294.3167191,293.5079807,290.8734559,288.3437547,286.4415754,285.1518838,,
53.58,290.7311376,294.156607,293.4438482,290.8809783,288.3681262,286.4565499,285.1572425,,
54.95,290.5808204,294.0013245,293.3790169,290.886349,288.3914082,286.4714066,285.1628319,,
56.33,290.4352626,293.8485257,293.3127069,290.8897216,288.4139243,286.48634,285.1687138,,
57.7,290.2962412,293.7003437,293.2460305,290.8911228,288.4353356,286.5011111,285.1747835,,
59.07,290.162375,293.5555749,293.1786483,290.89066,288.4557991,286.5158064,285.1810637,,
60.45,290.0324565,293.4131144,293.1101882,290.8883858,288.4754473,286.5305104,285.1875838,,
61.82,289.9081045,293.2749412,293.0417578,290.8844089,288.4939916,286.5449886,285.1942309,,
63.2,289.7872556,293.1389517,292.9724647,290.8787465,288.5117015,286.5594316,285.2010837,,
64.57,289.671433,293.0070315,292.9034094,290.871554,288.5283218,286.57361,285.2080255,,
65.94,289.5595342,292.8780999,292.8341778,290.8628681,288.5439875,286.5876099,285.2150881,,
67.32,289.4505856,292.7511648,292.7643431,290.8526798,288.5588079,286.6015132,285.2223073,,
68.69,289.345981,292.627984,292.6949897,290.8412054,288.5725756,286.6151009,285.229562,,
70.06,289.2447455,292.5075475,292.6256773,290.8284424,288.5854102,286.628458,285.2368883,,
71.44,289.1460141,292.3889271,292.5559604,290.8143486,288.5974053,286.6416638,285.2443245,,
72.81,289.0510659,292.2737653,292.4869035,290.799191,288.6083989,286.6545124,285.2517477,,
74.19,288.958371,292.1603055,292.4175478,290.7828094,288.6185642,286.6671774,285.2592515,,
75.56,288.8691391,292.0501192,292.3489425,290.7654995,288.6277676,286.6794626,285.2667126,,
76.93,288.7825632,291.9423047,292.2806239,290.7472023,288.6361006,286.6914493,285.2741719,,
78.31,288.6979216,291.8360319,292.2121326,290.7278282,288.64363,286.7032106,285.2816701,,
79.68,288.6163296,291.7327742,292.1444932,290.7077096,288.6502625,286.7145664,285.2890859,,
81.05,288.5370606,291.6316888,292.077237,290.6867593,288.6560723,286.725594,285.2964615,,
82.43,288.4594617,291.5319985,292.0099031,290.6648634,288.6611098,286.7363622,285.3038383,,
83.8,288.3845641,291.4350871,291.9434904,290.642385,288.6653194,286.7467077,285.3110981,,
85.17,288.3117099,291.3401663,291.8775296,290.6192119,288.668758,286.7567033,285.3182839,,
86.55,288.2403056,291.2465074,291.8115624,290.5952096,288.67146,286.7664124,285.3254369,,
87.92,288.171307,291.1554126,291.7465606,290.5707663,288.6734043,286.7756895,285.3324439,,
89.3,288.1036312,291.0654982,291.6815894,290.5455638,288.6746374,286.7846657,285.3393976,,
90.67,288.0381882,290.9780157,291.6176023,290.520004,288.6751595,286.7932075,285.3461886,,
92.05,287.9739546,290.8916373,291.5536757,290.493749,288.6749963,286.8014367,285.3529076,,
93.42,287.9117976,290.8075668,291.4907451,290.4672129,288.6741681,286.8092318,285.3594497,,
94.79,287.8511853,290.7251253,291.4283526,290.4402387,288.6726939,286.8166521,285.3658565,,
96.17,287.7916342,290.6436837,291.366055,290.4126554,288.6705736,286.8237467,285.3721666,,
97.54,287.7339526,290.5643783,291.3047602,290.3848915,288.6678554,286.8304121,285.3782821,,
98.92,287.6772457,290.4860089,291.2435773,290.3565697,288.6645172,286.8367457,285.3842865,,
100.29,287.6222856,290.4096704,291.1833962,290.3281265,288.6606243,286.842656,285.3900871,,
101.66,287.5686094,290.3347501,291.1237736,290.2993828,288.6561715,286.8481911,285.3957231,,
103.04,287.515794,290.2606783,291.0642817,290.2701494,288.6511367,286.8533886,285.4012291,,
104.41,287.4645617,290.1884915,291.0057833,290.2408726,288.6456093,286.8581749,285.4065212,,
105.79,287.4141231,290.1170998,290.9474244,290.2111467,288.6395247,286.8626217,285.4116727,,
107.16,287.3651699,290.0475033,290.89005,290.1814229,288.6329868,286.866667,285.4166055,,
108.53,287.3172952,289.9791467,290.8332339,290.1515059,288.6259688,286.8703469,285.4213546,,
109.91,287.2701254,289.911512,290.7765659,290.1211939,288.6184292,286.8736873,285.4259498,,
111.28,287.2243097,289.8455481,290.7208651,290.0909436,288.6104923,286.8766429,285.4303221,,
112.66,287.1791462,289.7802615,290.6653155,290.0603303,288.6020566,286.8792603,285.4345334,,
114.03,287.1352581,289.7165689,290.6107195,290.0298134,288.5932588,286.8815053,285.4385207,,
115.41,287.0919741,289.6535119,290.5562765,289.9989626,288.5839841,286.8834144,285.4423408,,
116.78,287.049893,289.5919769,290.502772,289.9682392,288.5743807,286.8849641,285.4459372,,
118.15,287.0086701,289.5314765,290.4498056,289.9374335,288.5643959,286.8861736,285.4493373,,
119.53,286.9679873,289.4715544,290.3969926,289.9063326,288.5539656,286.8870525,285.4525631,,
120.9,286.9284089,289.4130542,290.3450939,289.8753993,288.5432535,286.8875924,285.4555676,,
122.28,286.8893324,289.3550974,290.2933474,289.8441939,288.5321157,286.887806,285.4583944,,
123.65,286.8513007,289.2985005,290.2424984,289.8131793,288.5207254,286.8876949,285.4610025,,
125.03,286.8137358,289.2424143,290.1917996,289.7819133,288.5089282,286.8872624,285.4634303,,
126.4,286.7771605,289.1876296,290.1419808,289.7508587,288.4969063,286.8865195,285.4656431,,
127.77,286.7412793,289.1337156,290.0926677,289.7197984,288.4845864,286.8854694,285.4676598,,
129.15,286.7058177,289.0802672,290.0435008,289.6885144,288.4718862,286.8841061,285.4694938,,
130.52,286.6712705,289.0280391,289.9951874,289.6574683,288.4590001,286.8824544,285.4711196,,
131.9,286.6371145,288.9762492,289.9470167,289.626215,288.4457504,286.8804955,285.4725619,,
133.27,286.6038269,288.9256291,289.8996815,289.5952146,288.4323389,286.8782629,285.4738013,,
134.64,286.5711408,288.8757824,289.8528256,289.5642477,288.4186802,286.8757487,285.4748503,,
136.02,286.5388076,288.8263358,289.8061068,289.5330953,288.4046813,286.8729368,285.475716,,
137.39,286.5072799,288.7779887,289.7601966,289.5022151,288.3905543,286.8698731,285.4763875,,
138.77,286.4760819,288.7300182,289.7144193,289.4711624,288.3761018,286.8665183,285.4768766,,
140.14,286.445651,288.6831035,289.6694329,289.4403926,288.3615418,286.8629261,285.4771779,,
141.51,286.4157447,288.6368785,289.6248984,289.4096858,288.3467789,286.8590786,285.4772976,,
142.89,286.3861367,288.5909979,289.5804902,289.3788236,288.3317112,286.8549501,285.4772368,,
144.26,286.3572426,288.5461117,289.5368464,289.3482579,288.316565,286.8506057,285.4769985,,
145.64,286.3286278,288.50155,289.4933245,289.3175469,288.3011269,286.8459872,285.4765814,,
147.01,286.3006944,288.4579446,289.4505496,289.2871399,288.2856282,286.8411668,285.475994,,
148.39,286.2730224,288.4146451,289.4078919,289.2565969,288.2698499,286.8360792,285.4752299,,
149.76,286.2460014,288.3722656,289.3659641,289.2263642,288.2540277,286.8308033,285.4743028,,
151.13,286.219418,288.3304773,289.3244504,289.1962235,288.2380547,286.8253082,285.4732101,,
152.51,286.1930719,288.288969,289.2830469,289.1659592,288.2218194,286.8195565,285.4719445,,
153.88,286.1673345,288.24833,289.2423484,289.1360128,288.2055636,286.8136364,285.470527,,
155.26,286.1418198,288.207955,289.2017554,289.1059501,288.1890561,286.8074666,285.4689395,,
156.63,286.1168877,288.1684177,289.1618511,289.0762093,288.1725425,286.8011414,285.4672077,,
158.01,286.0921645,288.1291293,289.1220478,289.0463589,288.1557875,286.7945734,285.4653088,,
159.38,286.0679995,288.0906483,289.0829171,289.0168336,288.1390397,286.7878626,285.463273,,
160.75,286.0442031,288.0526775,289.0441643,288.987419,288.1221838,286.7809668,285.4610899,,
162.13,286.0205969,288.0149349,289.0055057,288.9579035,288.105101,286.7738384,285.4587446,,
163.5,285.9975147,287.9779573,288.9674965,288.9287169,288.088044,286.7665854,285.4562738,,
164.88,285.9746113,287.9411949,288.9295771,288.8994347,288.0707691,286.7591064,285.4536442,,
166.25,285.9522107,287.905171,288.892292,288.8704829,288.0535315,286.7515145,285.4508965,,
167.62,285.9301381,287.869608,288.8553605,288.8416505,288.0362113,286.7437604,285.448015,,
169,285.9082285,287.8342424,288.8185123,288.8127295,288.0186857,286.7357903,285.4449798,,
170.37,285.8867922,287.7995776,288.7822765,288.7841405,288.0012134,286.7277241,285.4418376,,
171.75,285.8655092,287.7650991,288.7461198,288.7554672,287.9835437,286.7194481,285.4385454,,
173.12,285.8446813,287.7312979,288.7105614,288.7271262,287.965937,286.7110868,285.4351535,,
174.5,285.8239976,287.6976724,288.6750779,288.6987047,287.9481403,286.7025221,285.4316152,,
175.87,285.8037515,287.6647018,288.6401791,288.6706156,287.9304158,286.6938823,285.4279843,,
177.24,285.7837859,287.6321332,288.6056023,288.6426532,287.9126386,286.6851098,285.4242383,,
178.62,285.7639522,287.5997257,288.5710944,288.6146155,287.894682,286.6761432,285.4203512,,
179.99,285.7445317,287.5679414,288.5371512,288.5869094,287.8768101,286.6671164,285.416382,,
181.37,285.7252353,287.536309,288.5032731,288.5591312,287.8587656,286.6579013,285.4122754,,
182.74,285.7063372,287.5052798,288.4699469,288.5316837,287.8408135,286.6486353,285.4080935,,
184.11,285.687691,287.4746165,288.436922,288.5043658,287.8228265,286.6392559,285.4038094,,
185.49,285.6691583,287.4440924,288.4039566,288.4769799,287.8046762,286.6296968,285.3993933,,
186.86,285.6510026,287.4141433,288.3715246,288.449923,287.7866288,286.6201004,285.3949117,,
188.24,285.6329536,287.3843256,288.3391486,288.4228005,287.7684241,286.61033,285.3903017,,
189.61,285.6152683,287.355065,288.3072939,288.3960057,287.7503289,286.6005306,285.3856326,,
190.99,285.5976837,287.3259282,288.2754918,288.3691476,287.7320818,286.5905627,285.3808385,,
192.36,285.58045,287.2973316,288.2441994,288.3426154,287.7139503,286.5805741,285.3759914,,
193.73,285.5634346,287.269057,288.2131818,288.3162143,287.6958047,286.5704961,285.3710593,,
195.11,285.5465113,287.2408958,288.1822117,288.2897529,287.6775154,286.5602574,285.3660076,,
196.48,285.5299212,287.2132505,288.1517347,288.2636147,287.6593497,286.5500096,285.3609117,,
197.86,285.5134179,287.1857122,288.1213022,288.2374181,287.6410452,286.5396061,285.3556996,,
199.23,285.4972366,287.1586744,288.0913519,288.2115426,287.6228695,286.5292008,285.350449,,
200.6,285.481253,287.1319316,288.0616589,288.1857979,287.6046923,286.5187215,285.3451248,,
201.98,285.4653489,287.1052865,288.032006,288.1599973,287.5863832,286.5080939,285.3396893,,
203.35,285.449751,287.0791204,288.0028197,288.1345145,287.5682099,286.4974748,285.3342236,,
204.73,285.434228,287.0530463,287.9736706,288.1089773,287.5499091,286.486712,285.3286499,,
206.1,285.4190013,287.0274375,287.944978,288.0837556,287.5317481,286.4759643,285.3230512,,
207.48,285.4038452,287.0019154,287.9163199,288.058481,287.5134639,286.4650775,285.3173477,,
208.85,285.3889759,286.9768454,287.8881087,288.0335194,287.4953235,286.454212,285.3116242,,
210.22,285.3742797,286.952037,287.8601327,288.0086869,287.4771961,286.4432917,285.3058415,,
211.6,285.3596481,286.9273078,287.8321873,287.9838034,287.4589516,286.4322387,285.2999588,,
212.97,285.34529,286.9030119,287.8046746,287.959229,287.440856,286.4212159,285.2940632,,
214.35,285.3309927,286.8787904,287.7771901,287.9346049,287.4226469,286.4100646,285.2880705,,
215.72,285.3169605,286.8549904,287.7501293,287.9102873,287.40459,286.3989489,285.2820695,,
217.09,285.3030863,286.8314313,287.7232894,287.886097,287.3865548,286.3877905,285.2760188,,
218.47,285.2892676,286.8079401,287.6964741,287.8618585,287.3684115,286.3765097,285.2698754,,
219.84,285.2757021,286.7848533,287.6700695,287.8379226,287.3504245,286.3652722,285.2637301,,
221.22,285.262189,286.7618303,287.6436873,287.8139394,287.3323329,286.3539161,285.257495,,
222.59,285.2489215,286.7392009,287.6177074,287.790256,287.3144002,286.3426083,285.2512621,,
223.97,285.2357032,286.7166312,287.5917477,287.7665263,287.296366,286.3311856,285.2449422,,
225.34,285.2227233,286.694445,287.5661821,287.7430937,287.278493,286.3198157,285.2386284,,
226.72,285.2097899,286.6723147,287.5406348,287.7196156,287.2605217,286.3083345,285.2322302,,
228.09,285.1970878,286.6505579,287.5154737,287.6964318,287.2427137,286.2969105,285.2258419,,
229.46,285.1845207,286.6290101,287.4905104,287.6733712,287.2249399,286.2854624,285.2194189,,
230.84,285.171996,286.6075131,287.4655625,287.6502663,287.2070722,286.2739083,285.2129153,,
232.21,285.1596928,286.5863753,287.4409893,287.6274515,287.1893706,286.2624173,285.2064269,,
233.59,285.1474295,286.565285,287.4164298,287.6045932,287.1715778,286.2508236,285.1998604,,
234.96,285.1353816,286.5445448,287.3922375,287.5820221,287.1539527,286.2392969,285.1933125,,
236.33,285.1234577,286.5239984,287.3682317,287.5595716,287.1363674,286.2277549,285.1867371,,
237.71,285.1115701,286.5034949,287.3442369,287.5370786,287.1186949,286.2161149,285.1800872,,
239.08,285.0998891,286.4833287,287.3205989,287.5148686,287.1011923,286.2045472,285.1734606,,
240.46,285.0882421,286.4632025,287.2969702,287.4926168,287.083605,286.1928845,285.1667618,,
241.83,285.0767961,286.4434053,287.2736914,287.4706452,287.0661888,286.1812974,285.1600892,,
243.2,285.0654643,286.423788,287.2505885,287.4487914,287.0488169,286.1697028,285.1533957,,
244.58,285.0541636,286.4042067,287.2274927,287.4268967,287.0313639,286.1580175,285.1466333,,
245.95,285.0430558,286.3849426,287.2047369,287.4052779,287.0140836,286.1464124,285.1399012,,
247.33,285.031977,286.365712,287.1819868,287.3836188,286.9967245,286.1347194,285.1331024,,
248.7,285.0210862,286.3467912,287.1595702,287.3622327,286.9795388,286.1231092,285.1263367,,
250.07,285.0103009,286.3280377,287.1373199,287.3409617,286.9624014,286.1114986,285.1195557,,
251.45,284.9995419,286.3093141,287.1150732,287.3196512,286.9451884,286.099804,285.1127112,,
252.82,284.9889636,286.2908895,287.0931508,287.2986095,286.92815,286.0881963,285.1059032,,
254.2,284.9784099,286.2724926,287.0712309,287.2775289,286.911038,286.0765071,285.0990335,,
255.57,284.9680323,286.2543878,287.0496294,287.2567143,286.8941011,286.0649071,285.0922027,,
256.95,284.9576777,286.2363086,287.0280291,287.2358612,286.8770926,286.0532281,285.0853121,,
258.32,284.9474947,286.2185148,287.0067413,287.2152713,286.8602597,286.0416406,285.0784626,,
259.69,284.9374065,286.2008729,286.9856074,287.1947925,286.8434794,286.0300609,285.0716051,,
261.07,284.9273391,286.1832535,286.964473,287.174276,286.8266303,286.0184057,285.0646905,,
262.44,284.917437,286.1659101,286.9436429,287.1540186,286.8099572,286.006845,285.0578199,,
263.82,284.9075543,286.1485875,286.9228112,287.1337238,286.7932172,285.995211,285.050894,,
265.19,284.8978328,286.1315347,286.9022783,287.1136854,286.7766533,285.9836734,285.044014,,
266.57,284.8881293,286.114501,286.8817429,287.0936101,286.7600242,285.9720647,285.0370802,,
267.94,284.8785833,286.0977312,286.8615011,287.0737885,286.7435714,285.9605541,285.0301941,,
269.31,284.8691227,286.0810996,286.841402,287.0540739,286.7271744,285.9490582,285.0233063,,
270.69,284.8596783,286.0644845,286.821299,287.0343232,286.7107147,285.9374944,285.0163671,,
272.06,284.8503857,286.048125,286.8014819,287.0148219,286.6944312,285.9260309,285.009478,,
273.44,284.841108,286.0317804,286.78166,286.995285,286.6780866,285.9145014,285.0025392,,
274.81,284.8319787,286.0156859,286.7621191,286.9759948,286.661918,285.9030738,284.9956519,,
276.19,284.8228632,285.999605,286.7425726,286.9566693,286.6456897,285.8915819,284.9887163,,
277.56,284.8138926,285.9837689,286.7233023,286.937588,286.6296373,285.8801933,284.9818338,,
278.93,284.8049993,285.9680591,286.7041648,286.9186099,286.6136433,285.8688251,284.9749546,,
280.31,284.7961184,285.9523607,286.6850205,286.899597,286.5975917,285.8573955,284.9680292,,
281.68,284.7873774,285.9368997,286.6661454,286.8808243,286.5817156,285.8460708,284.9611588,,
283.06,284.7786478,285.9214488,286.6472629,286.8620173,286.5657834,285.8346863,284.9542436,,
284.43,284.7700549,285.9062304,286.6286452,286.8434479,286.5500263,285.8234078,284.9473844,,
285.81,284.7614725,285.8910209,286.6100192,286.8248445,286.5342143,285.8120712,284.9404818,,
287.18,284.7530238,285.8760393,286.5916537,286.8064762,286.518577,285.8008415,284.9336364,,
288.55,284.7446455,285.8611734,286.573412,286.7882072,286.5029997,285.789637,284.9267986,,
289.93,284.7362763,285.8463148,286.5551611,286.7699048,286.4873696,285.7783768,284.9199193,,
291.3,284.7280365,285.8316772,286.5371644,286.7518336,286.4719133,285.7672247,284.9130987,,
292.68,284.719805,285.8170457,286.5191579,286.7337294,286.4564054,285.7560185,284.9062376,,
294.05,284.7117002,285.8026311,286.5014013,286.7158538,286.4410708,285.744921,284.8994362,,
