time (s),temp0,temp1,temp2,temp3,temp4,temp5,temp6,alpha value:,4.4740084751543045e-05
0.0,309.0438747619465,298.11379838487267,291.7814030978502,287.92511370000875,285.63686100389936,284.7704855545478,284.15
1.37,304.79726683725113,295.67890664730584,290.29794158554523,287.0421491270407,285.30518901361665,284.5295279437771,284.15266123905377
2.75,304.13230746756346,295.5893138812588,290.2399775712829,287.01108500302024,285.3017029958099,284.52006355528243,284.1661000785948
4.12,303.23397041951705,295.6785604608747,290.2907171373334,287.0490329552791,285.3295969695772,284.5294823953383,284.17841620115973
5.49,302.1626196329812,295.7996702771922,290.3704388571785,287.10627839657377,285.3659406288728,284.54473484904315,284.18359506287084
6.87,301.04901312252986,295.90051713036104,290.45893043948666,287.16922961998756,285.40451284092944,284.5619446087975,284.18253208011805
8.24,299.9861436345694,295.9585301388829,290.5492394232212,287.2331135253941,285.443233781669,284.5794762256586,284.1775242256268
9.620000000000001,298.9906742876407,295.9683475772348,290.64036600587286,287.29784877611974,285.48240638938285,284.59702565427045,284.1703959739724
10.99,298.0858485238154,295.9314811635824,290.72909922943836,287.3622449430884,285.52144829565964,284.614106848827,284.16251913072165
12.36,297.26245371281766,295.8535277709493,290.8141854030544,287.42669126995173,285.560647158632,284.63077857933723,284.154636533655
13.74,296.50930759321346,295.74022729652745,290.89436689749255,287.49158139312703,285.6002801032784,284.6471778008596,284.14716899326913
15.11,295.8299280843809,295.59996557983146,290.9669362448869,287.5558467444129,285.6397505416021,284.66313295452886,284.1404955282545
16.48,295.2111952315198,295.43815337683003,291.03133637310447,287.6197664638741,285.67931768753203,284.67884968556166,284.13470163339986
17.86,294.64228674377034,295.2587343471956,291.0871709343652,287.6835514755253,285.71924106798264,284.69453061416675,284.1298187231883
19.23,294.1252425730626,295.06876706518796,291.13322298398407,287.74598596612645,285.75890961950324,284.71003347938074,284.12593299410855
20.6,293.65032527279504,294.8706370681829,291.1698295315297,287.8072232827285,285.79857658713155,284.72554768421384,284.1229923261566
21.98,293.20973437151315,294.6657823568565,291.19729422663147,287.86737874936523,285.83848997235145,284.7412519392173,284.1209555974515
23.35,292.8057189979702,294.45952985108585,291.2155370078637,287.9252772547612,285.8780237853447,284.75697226041035,284.1198136569671
24.73,292.4287572602297,294.25075149121193,291.2252717762645,287.9814830006219,285.9177002956341,284.7729812694216,284.119506610008
26.1,292.0811956666067,294.0439345500281,291.22688172869,288.03493614130264,285.9568835936104,284.7890794506728,284.11999484106843
27.47,291.7575027714335,293.83869569720906,291.221035000862,288.08584553322567,285.99579561587336,284.8054050887348,284.12122976917016
28.85,291.45319379362854,293.6344326058776,291.208201492136,288.13438526012675,286.0346459419745,284.82209447550514,284.1231860356123
30.22,291.1706073618335,293.4347669218868,291.1891575863475,288.1797223271216,286.0727977253424,284.83891250203294,284.12579485124144
31.59,290.90565485110614,293.23869806866634,291.164408016725,288.22212657236156,286.11045925143367,284.8559789918088,284.12902964452644
32.97,290.6549818664812,293.0451949877011,291.1342675431523,288.26181636777585,286.1478248053461,284.8734147673436,284.13288411619794
34.34,290.42080508453256,292.8573131069621,291.09969807861796,288.2981885146921,286.1842799296663,284.8909552333338,284.1372676988645
35.71,290.2000033145454,292.6738004056417,291.06098901122175,288.33154051201586,286.2200280342117,284.90870929757716,284.14217333406316
37.09,289.9899864976891,292.49346487490055,291.01827425837644,288.36210487258535,286.2552558868391,284.92678801616677,284.1476106604956
38.46,289.7928015924201,292.3189659601871,290.97259700502667,288.3894802631032,286.2893917986076,284.94490525325773,284.1534704182587
39.84,289.60466935729494,292.14776056941633,290.92368445595724,288.41412479000775,286.32287778272115,284.9632983377257,284.15980842938905
41.21,289.4275159147023,291.9823018259524,290.87260300705594,288.43575241729775,286.35517849064155,284.98167163643916,284.16650426195883
42.58,289.25922519776327,291.82127980816637,290.8193326798862,288.45463336838355,286.3864960384956,285.000127449662,284.17357461997
43.96,289.09801128396157,291.66349509870224,290.7637599921151,288.4709656833644,286.41700981032614,285.01876937386174,284.1810477794995
45.33,288.9456224651389,291.5111478243048,290.70696029250615,288.4846083699932,286.4462453373003,285.03729479803303,284.18878872004666
46.7,288.80033119798003,291.3629821683716,290.648780587361,288.4957886696811,286.4744011710481,285.05580618534145,284.1968242800763
48.08,288.6606664797356,291.21785701499687,290.58900398714223,288.50466448614713,286.5016498308525,285.07440571603445,284.20519036002236
49.45,288.528210684936,291.07776576276547,290.52869670816585,288.51121112904815,286.52758062108774,285.0927917257427,284.21374033886684
50.82,288.40152733168395,290.94152965741256,290.4676087055454,288.51560501292266,286.55238420029383,285.11106799928314,284.2225090940255
52.2,288.2793833995238,290.80808104137145,290.40544901547463,288.51795898451115,286.5762228228268,285.12933605794365,284.23153834464955
53.57,288.16321082023376,290.6792388057112,290.34326449020415,288.5183412562381,286.5987487878613,285.1473018161937,284.2406731840999
54.95,288.0509999685117,290.5530062946633,290.28027970587397,288.51685881206066,286.62029254579863,285.1651992200995,284.25002318082903
56.32,287.9440912907945,290.43109959636587,290.21752506353147,288.5136311977831,286.6405468967508,285.1827422261392,284.2594297943495
57.69,287.84139286681153,290.3124804485624,290.1546499189154,288.50874905575773,286.659680156787,285.20003625143187,284.2689379332118
59.07,287.74195632114106,290.1962090405687,290.09128889428393,288.502251623752,286.677830619042,285.21718098288005,284.27859607615096
60.44,287.64699787390606,290.08386379611596,290.02844440228927,288.494322252065,286.6947485167757,285.2339058805206,284.28824300241354
61.81,287.55557577665473,289.97448749214306,289.9657318479508,288.4850048038814,286.7105847289323,285.250315858773,284.29792797636225
63.190000000000005,287.46686694823256,289.8672127662169,289.90276217373145,288.4742991265827,286.7254603526347,285.26650822902394,284.3077020769943
64.56,287.38197759471944,289.7634965749722,289.8405072870566,288.46243944657067,286.73917862956165,285.2822310238402,284.3174044870882
65.94,287.29949995771494,289.66172930139174,289.77811141544845,288.4493290123744,286.75196019524344,285.29769788093813,284.32715825305615
67.31,287.22047396801696,289.56329442350943,289.7165252843962,288.43523007696274,286.7636411025464,285.3126704247735,284.3368043692225
68.68,287.14414719619964,289.46735713836676,289.65533622804804,288.4201202308423,286.7743397669925,285.3272494259666,284.34639684692394
70.06,287.06985586374213,289.3731588622052,289.59413817140296,288.40394419071083,286.78414661518053,285.3415255804823,284.3559889303637
71.43,286.9985501931164,289.28198277049114,289.5338494863055,288.386998823389,286.7929430368001,285.35528203794513,284.36542633813167
72.8,286.92956502260506,289.193059052853,289.47405229732743,288.36922925078613,286.80082736546854,285.3686151542861,284.3747644805324
74.18,286.8623106053218,289.1056867585182,289.41433940593674,288.3505534595724,286.80787154866954,285.38161016307447,284.38405667754915
75.55,286.79765766682084,289.0210589831956,289.3555966175863,288.33129554619404,286.8139979004874,285.39407252940237,284.3931554095296
76.92,286.7350139085536,288.9384647862133,289.29740662845626,288.31137325180316,286.81928500006313,285.4060929551351,284.40211645925183
78.3,286.6738517358202,288.85725542791516,289.2393655872569,288.29068218639406,286.82378685316775,285.41775028546226,284.410992375413
79.67,286.6149712771978,288.77854276949336,289.1823269597337,288.2695676289651,286.82746255633225,285.4288725562776,284.4196440281829
81.05,286.55743094687705,288.70111453913375,289.12546826378605,288.24776471026564,286.8303901687241,285.4396200371212,284.42818789123845
82.42,286.5019881265512,288.6260327340448,289.06962166545446,288.22563002428996,286.83255118646025,285.44983576617403,284.43649115107877
83.79,286.448147820667,288.5526721721199,289.0143792942973,288.2030455981154,286.83399308288233,285.4595988921255,284.4446081338628
85.17,286.395465988098,288.4804602732512,288.9593493448919,288.1798781582246,286.83474195738177,285.46897609296946,284.4525884270524
86.54,286.34464176034675,288.410390145338,288.905332677187,288.1564976891978,286.834809879332,285.47783255292353,284.4603094954589
87.91,286.2952273741727,288.3418814335096,288.8519303194354,288.1327698795087,286.8342271658233,285.48623960282526,284.46782370320597
89.29,286.24681960675105,288.2744014485975,288.79876010441023,288.10854841359327,286.83300466537366,285.49425603770607,284.4751780058911
90.66,286.2000654878311,288.20888065323146,288.74659246367827,288.08421306240234,286.8311817223235,285.5017685786637,284.48226085040517
92.03,286.1545580102269,288.1447791893496,288.69503878925707,288.05961635139295,286.8287727716782,285.508840336526,284.48912195716593
93.41,286.10992932710695,288.0816004702691,288.64372759866046,288.0346015866312,286.8257746179539,285.5155220007678,284.495805129277
94.78,286.0667797316116,288.0202178460093,288.5933998932517,288.0095553488495,286.82225088683094,285.5217210424409,284.50221023139756
96.16,286.02443472094046,287.9596941386789,288.5433176348284,287.9841348653331,286.8181700005377,285.5275326994213,284.5084279787541
97.53,285.98346604141415,287.9008673498258,288.49420277599626,287.9587298660288,286.81361026804007,285.5328777917226,284.5143659861401
98.9,285.94352321473923,287.84325677297994,288.44568582818215,287.93317674783697,286.80856255756703,285.5378053203447,284.5200683614761
100.28,285.9042877248937,287.7864186904424,288.3974143341014,287.90730637762033,286.8030029530151,285.5423523592542,284.5255727650078
101.65,285.8662920792129,287.73114189809183,288.3500826358809,287.8815114399589,286.7970296764013,285.5464589115255,284.53079847292406
103.02,285.82921420429017,287.6769768089534,288.30333322122544,287.8556215057394,286.7906211773247,285.55016551390764,284.53578568650255
104.4,285.7927605005168,287.62350759549014,288.256825303236,287.8294623551417,286.78374267588094,285.5535012048979,284.54056800539934
105.77,285.7574280111716,287.5714779254707,288.2112267486906,287.80342784459356,286.7765100250591,285.5564241412685,284.54507628516427
107.14,285.7229197334185,287.5204665049473,288.16619209876893,287.7773424437283,286.76889047646677,285.5589665339878,284.5493465409846
108.52,285.6889641379864,287.47008291521627,288.12139219505866,287.751028280212,286.76083948791296,285.5611495927269,284.55340813522633
109.89,285.65602612974624,287.42102935257896,288.07746957023517,287.7248789158458,286.7524884870077,285.56294856650476,284.55720328995676
111.27,285.6235986120189,287.37256243712034,288.03377607529205,287.69852416124894,286.7437299920572,285.564396762864,284.56078877541427
112.64,285.5921266948688,287.3253585344014,287.99093796393663,287.6723566978952,286.7347047839473,285.56548024268574,284.5641142302051
114.01,285.56134908712113,287.2790380688018,287.9486296110586,287.64619558270937,286.72536395907775,285.5662178673185,284.56720831307746
115.39,285.5310258367459,287.23324818749626,287.9065408201241,287.6198594183622,286.71564895418686,285.56661842273485,284.5700931301289
116.76,285.5015746257558,287.1886290836355,287.86527438683555,287.5937387112629,286.70571314037454,285.5666832761449,284.57272911503867
118.14,285.47254443864176,287.1445065398224,287.8242205928742,287.5674604749157,286.6954237584763,285.56642063057876,284.5751571966562
119.51,285.4443360055283,287.10149816237094,287.7839671859146,287.5414132769445,286.68494170806343,285.5658414807309,284.57734477503624
120.88,285.41671763605365,287.05926029943134,287.7442076343979,287.5154137425754,286.67420475574403,285.564952234414,284.57931298645894
122.26,285.3894756887221,287.0174725532991,287.70464986133453,287.48927941299985,286.6631428384491,285.56375020985547,284.58107668941494
123.63000000000001,285.3629873275342,286.97672082479465,287.6658599588292,287.46339534615134,286.6519269401936,285.5622599597953,284.5826133261114
125.0,285.3370362451615,286.9366806428014,287.6275423732287,287.4375777981503,286.6404880332737,285.5604809233454,284.58393956012816
126.38000000000001,285.31142252694735,286.89704898319116,287.58941540498995,287.4116445698269,286.6287502250508,285.5584040477681,284.5850660019804
127.75,285.2865017554655,286.8583823862427,287.5520245240084,287.38597661046725,286.6168932780123,285.5560664323864,284.5859796314659
129.13,285.2618949550636,286.82009895726105,287.5148167676284,287.36020400327124,286.6047535192445,285.55344096087106,284.58669720314595
130.5,285.2379443028156,286.78273683603715,287.47832439617986,287.33470468248856,286.59251590841563,285.55057256164804,284.58721177030753
131.87,285.21445590892154,286.7460001668462,287.44226927448824,287.3092956650652,286.5801018424599,285.547449946652,284.5875327515993
133.25,285.1912499343236,286.70961190834635,287.4063861270743,287.28379631109044,286.56742726480223,285.54405431770135,284.58766395432013
134.62,285.1686498308534,286.6740842808891,287.3711882246215,287.2585797063856,286.55468401688995,285.5404415446478,284.5876070824061
135.99,285.14647350318035,286.639136814802,287.3364073246804,287.23346397248093,286.5417886896094,285.5365944529344,284.5873673938143
137.37,285.1245517110537,286.6045064729655,287.3017874633756,287.2082699320201,286.528653160527,285.5324889283916,284.5869448265679
138.74,285.1031906629626,286.5706813756138,287.2678238436993,287.18336550327956,286.5154751631927,285.52819087465497,284.58634919257446
140.12,285.08206732803376,286.5371542524206,287.234014134993,287.15838971064676,286.5020695047985,285.52364392052453,284.5855755343153
141.49,285.0614771561421,286.50439807018324,287.200841972008,287.1337068830493,286.48863734946343,285.51892018353334,284.5846387740896
142.86,285.041255428649,286.47215546473154,287.1680546801788,287.10913778803666,286.47508862945546,285.51399358003636,284.5835376180004
144.24,285.02124856987115,286.44018447714376,287.13541093369156,287.08450633533624,286.4613296431076,285.50883199519166,284.58226596077645
145.61,285.0017369379305,286.4089366612654,287.1033777401032,287.06017131385573,286.4475660075582,285.5035161651264,284.5808459343197
146.98,284.9825650511743,286.3781671562736,287.0717112142401,287.0359554493113,286.43370438125993,285.498015194377,284.57927257342556
148.36,284.963587686251,286.34764543501285,287.0401782896362,287.011684799053,286.4196483535281,285.49229267131193,284.5775364115137
149.73,284.9450712355703,286.31780306801414,287.0092301530374,286.987712465079,286.4056072427502,285.4864371621609,284.57566626430037
151.1,284.9268686860632,286.2884067980984,286.978631311256,286.9638633421049,286.39148490997826,285.4804133437465,284.57365370112586
152.48,284.90884248837347,286.2592367242952,286.94815658218045,286.9399658009394,286.37718265711766,285.4741808675596,284.5714860986319
153.85,284.8912460893037,286.2307057438263,286.9182420960881,286.91636715537044,286.3629128253533,285.4678353865348,284.5691984453025
155.23,284.873814988594,286.2023876798022,286.88844565264407,286.8927237684798,286.348472035622,285.4612895424274,284.56676092070245
156.6,284.856794512894,286.1746836406913,286.85919373740296,286.86937905316216,286.33407430217,285.4546433267086,284.5642123577403
157.97,284.84005028033715,286.1473779358701,286.8302640031619,286.8461618714078,286.3196197575656,285.4478548481502,284.5615390178616
159.35,284.823456218551,286.1202667842059,286.80144361869577,286.822904722006,286.3050067176714,285.44087795283866,284.5587234731511
160.72,284.8072462056734,286.0937345707129,286.773145197557,286.7999451414234,286.29045123198455,285.4338185777065,284.5558099174951
162.09,284.79129265305664,286.0675751855998,286.74515379244065,286.7771145235319,286.2758516924066,285.4266313552774,284.55278171297863
163.47,284.7754756769672,286.04159365729686,286.7172635260585,286.7542479570409,286.261105062111,285.41926707894896,284.5496188235464
164.84,284.7600184987291,286.0161586924467,286.68987379871595,286.7316770873632,286.2464289096673,285.4118370038405,284.5463703445081
166.22,284.74468958580604,285.99089128226916,286.6625799950749,286.7090725928618,286.23161274007185,285.4042371342068,284.5429920936501
167.59,284.7297054523711,285.96615020893097,286.6357730442951,286.68676218999866,286.2168748737046,285.3965819462512,284.5395361929136
168.96,284.7149487179227,285.9417439429323,286.60924958222944,286.6645816600272,286.20211151181513,285.38882099263265,284.5359816355012
170.34,284.70030882101247,285.9174909450233,286.58281462142213,286.64237052712696,286.18721799125143,285.3809006375448,284.5323044791164
171.71,284.68599278877065,285.89373588204325,286.5568468954901,286.62045064036175,286.17241340035014,285.37293972001214,284.52856102977984
173.08,284.67188876992134,285.87029521718415,286.5311495596474,286.59866047614395,286.15759300288886,285.3648851475855,284.5247279320789
174.46,284.65789126437863,285.8469947885579,286.5055337591475,286.57684225956535,286.1426514928297,285.35668099710193,284.52077915705246
175.83,284.6441984348678,285.8241659893252,286.4803665967439,286.5553120089736,286.12780833420413,285.3484499490879,284.51677479471493
177.21,284.6306057800342,285.8014693647514,286.4552765663078,286.5337551846098,286.11284968654144,285.340075569914,284.512659224543
178.58,284.6173058664454,285.77922788466014,286.43062330555017,286.51248393992523,286.09799506562774,285.33168283225683,284.5084948508414
179.95000000000002,284.60419520566774,285.75727023393245,286.406220179255,286.4913412979839,286.0831387121499,285.32321484634616,284.5042548335321
181.33,284.59117596979434,285.73543355192515,286.3818879435803,286.47017401116364,286.0681747248489,285.31461243658254,284.4999100679499
182.70000000000002,284.57843278644435,285.71402879893435,286.3579754763595,286.44928849104167,286.05332242530653,285.30600362821826,284.49552612550127
184.07,284.5658667251645,285.6928913909249,286.3343018936257,286.42853049758355,286.0384757258225,285.29732959431794,284.4910743225616
185.45000000000002,284.553384148658,285.67186470259026,286.31069336995273,286.40774949490634,286.0235286196707,285.2885295193771,284.48652393903274
186.82,284.54116224100574,285.6512483682016,286.287488506049,286.38724621866515,286.00869993729634,285.279734053318,284.4819433730647
188.19,284.5291063239299,285.63088412940806,286.2645119087229,286.36686916071056,285.99388345057235,285.27088266694744,284.4773022718695
189.57,284.5171266756558,285.61062122836944,286.2415949290063,286.3464704840485,285.97897321287,285.2619131188357,284.47256846139294
190.94,284.5053934926826,285.590748606774,286.21906634556393,286.32634532148444,285.96418729645103,285.25295828733846,284.46781284770066
192.32,284.49373212753727,285.57097150327945,286.196593954876,286.306199352167,285.9493117789425,285.2438902840478,284.4629682784343
193.69,284.4823083485922,285.5515720522185,286.17450021991255,286.2863240126012,285.9345640914734,285.23484326909175,284.4581071665497
195.06,284.4710339587098,285.532401725943,286.15261836203837,286.26657231724425,285.91983813939555,285.22575435462903,284.45319673992867
196.44,284.45982521599706,285.5133188077963,286.13078786137453,286.2468008833403,285.90502839965586,285.2165593575864,284.44820273573663
197.81,284.44884158370263,285.4945956958303,286.10932206042054,286.2272956780702,285.89035115912293,285.20739407136836,284.44319958917583
